-4.86975556602720E-0003
-3.65308081314839E-0003
-2.08717743402364E-0003
-2.73598453419463E-0003
-3.38255821559011E-0003
-4.14979881756510E-0003
-5.66876744758807E-0003
-6.54267242456406E-0003
-6.32272777530434E-0003
-5.53327961972087E-0003
-4.69193197715800E-0003
-3.11417223037238E-0003
-2.78247844460755E-0003
-2.00284862842567E-0003
-3.50120786158214E-0003
-4.43392368685222E-0003
-4.97625480090490E-0003
-6.24295532980996E-0003
-5.82700764267668E-0003
-5.53804610394433E-0003
-3.98359862144353E-0003
-2.65243535027478E-0003
-2.04301486762639E-0003
-2.44532099357316E-0003
-3.30687412503602E-0003
-4.30659968928444E-0003
-5.33670229944013E-0003
-6.27369813438423E-0003
-5.68579218064863E-0003
-5.49704365722148E-0003
-4.10991358243666E-0003
-3.25813185324747E-0003
-1.79767670327604E-0003
-2.37598497102718E-0003
-2.60836582718519E-0003
-3.57155697606610E-0003
-5.22241645714077E-0003
-5.54493778631542E-0003
-5.59701366097529E-0003
-5.66889698184924E-0003
-4.36404281150843E-0003
-3.17752944302016E-0003
-2.08521796125924E-0003
-2.55591380882939E-0003
-2.70279090834106E-0003
-4.45326937027404E-0003
-4.85566248313437E-0003
-5.69770607958866E-0003
-5.56958477259086E-0003
-4.89716266464475E-0003
-3.86395890048782E-0003
-3.03166248913915E-0003
-1.82188953999649E-0003
-1.90197773593947E-0003
-2.25779765032336E-0003
-3.73667971292382E-0003
-4.54987390087934E-0003
-6.02297464521666E-0003
-5.58258493175162E-0003
-5.22853712372057E-0003
-4.25482299788366E-0003
-2.38490052780045E-0003
-1.92750859833076E-0003
-1.53323717185303E-0003
-2.62365850159410E-0003
-3.72806064067025E-0003
-4.51597504176160E-0003
-5.50311683377021E-0003
-5.84150473471436E-0003
-5.43835553242141E-0003
-3.55735514801939E-0003
-2.09053393478993E-0003
-1.57124049370472E-0003
-1.58808951586618E-0003
-2.85889169973833E-0003
-4.08093175857765E-0003
-4.47897265191999E-0003
-5.32734882759060E-0003
-5.51469894010075E-0003
-4.50516301666340E-0003
-3.49735879137744E-0003
-2.71574089564800E-0003
-2.17577987195702E-0003
-1.63286245887622E-0003
-2.70061339260813E-0003
-3.27127823670464E-0003
-5.15497536427121E-0003
-5.76164234042363E-0003
-5.48310198590795E-0003
-4.33125967607502E-0003
-3.93374201705860E-0003
-2.76687019855926E-0003
-1.92041554967707E-0003
-2.00190404223112E-0003
-2.31955896609900E-0003
-3.56377867691898E-0003
-4.94180697160245E-0003
-5.78648097726144E-0003
-5.32084249949615E-0003
-4.45174017820467E-0003
-3.25587402364142E-0003
-2.73169523910846E-0003
-1.99326933521991E-0003
-1.99248410680738E-0003
-2.65332825457491E-0003
-3.11913275436298E-0003
-4.26147094709796E-0003
-5.38710671910674E-0003
-5.12886152675013E-0003
-4.54676403411325E-0003
-3.03317841439804E-0003
-2.06685898257227E-0003
-1.45127534068412E-0003
-9.27582861862545E-0004
-1.60499294787711E-0003
-3.39989081418364E-0003
-4.56123743156011E-0003
-5.24566069285799E-0003
-5.17724749456229E-0003
-4.23441764986224E-0003
-2.48922392568438E-0003
-1.66007961984112E-0003
-4.82589184417477E-0004
-6.80825972987239E-0004
-1.16822048217222E-0003
-1.73426424990536E-0003
-3.28291586601792E-0003
-3.84817613516274E-0003
-3.33371683175109E-0003
-2.38612065728245E-0003
-8.02023151769046E-0004
-2.03303805325872E-0007
 1.10991192678919E-0003
 1.16422346701711E-0003
 1.15738174987792E-0003
 2.17779583210679E-0004
-8.71680023228664E-0004
-1.13987035309039E-0003
-1.15354046070230E-0003
 1.25307045501418E-0005
 1.56105162356289E-0003
 3.34963169710070E-0003
 4.20092030671141E-0003
 3.98752629381762E-0003
 3.96892358863279E-0003
 3.07785796082651E-0003
 1.96834389522364E-0003
 1.53653681680046E-0003
 2.38573271410211E-0003
 3.58849537174024E-0003
 4.51778515992116E-0003
 6.87374194986824E-0003
 7.84752954236971E-0003
 8.00937515447575E-0003
 7.83434204886981E-0003
 6.29970094142371E-0003
 5.82118141466142E-0003
 5.38253856577876E-0003
 5.38137578548757E-0003
 6.48235684956053E-0003
 7.33878474090332E-0003
 8.74690558218469E-0003
 1.03238124041785E-0002
 9.84810706263237E-0003
 8.96042008143056E-0003
 8.69265013919392E-0003
 6.85412220224202E-0003
 5.86337552372330E-0003
 5.86833922686821E-0003
 7.28729938826732E-0003
 8.04892510948863E-0003
 9.23684850558671E-0003
 9.20879209640198E-0003
 9.59218158844106E-0003
 8.00317795938304E-0003
 6.88684691930872E-0003
 6.04938218817847E-0003
 4.67686665142184E-0003
 4.17312902905383E-0003
 4.70278535638813E-0003
 6.00959559543879E-0003
 6.29213053860741E-0003
 6.67517992440176E-0003
 6.45071340606542E-0003
 4.94313327076141E-0003
 4.17774888439149E-0003
 2.54038604505118E-0003
 8.62286538672281E-0004
 1.23464949068858E-0003
 1.16506170219215E-0003
 1.61267515777657E-0003
 3.19745497243911E-0003
 3.08700838894834E-0003
 2.55239455537887E-0003
 2.09653461710102E-0003
 3.83246151639015E-0004
-1.57627293108639E-0003
-2.08360344659924E-0003
-2.06085039390714E-0003
-1.99050836444294E-0003
-1.28604736204685E-0003
-2.32993946850532E-0004
 3.84560445580948E-0005
-2.27349913794657E-0004
-6.63641033826409E-0004
-1.74335935147510E-0003
-3.49210543351686E-0003
-4.36442239457451E-0003
-4.72815188057025E-0003
-4.66822096511964E-0003
-3.08172574774228E-0003
-2.76581077421308E-0003
-2.24464984788038E-0003
-1.92140468746296E-0003
-3.17859595884722E-0003
-5.03726977719887E-0003
-6.12575780059426E-0003
-8.17826920405759E-0003
-8.83545717116674E-0003
-8.54040700148773E-0003
-8.13859713127659E-0003
-7.19923811076612E-0003
-7.04757893526741E-0003
-7.63055340811197E-0003
-9.12312644730979E-0003
-1.03131946147333E-0002
-1.16924519039827E-0002
-1.25521797901136E-0002
-1.22267208374744E-0002
-1.10144687960763E-0002
-9.48136411699642E-0003
-7.71711759286016E-0003
-5.64952196067478E-0003
-3.87577722518898E-0003
-2.38968949339535E-0003
-1.54493513382760E-0003
-4.19551846510537E-0004
 2.29818814536204E-0003
 5.48979496400287E-0003
 1.01521244472736E-0002
 1.46485237217555E-0002
 1.98113021437429E-0002
 2.48292333585492E-0002
 2.89593557594797E-0002
 3.16969880750735E-0002
 3.37437622116138E-0002
 3.60942226265100E-0002
 3.79800025065877E-0002
 3.97052496976821E-0002
 4.16504031716840E-0002
 4.23865933403886E-0002
 4.36167247657612E-0002
 4.25061849111309E-0002
 4.04592223772650E-0002
 3.73967628945568E-0002
 3.26646944098053E-0002
 2.82361352776071E-0002
 2.26502979861536E-0002
 1.81957430979998E-0002
 1.47847596449447E-0002
 1.23269741018464E-0002
 8.75939459625208E-0003
 6.08356714547968E-0003
 2.33198374996726E-0003
-1.50193950470691E-0003
-6.30490091766137E-0003
-9.89646790477016E-0003
-1.23133930853655E-0002
-1.48522439359168E-0002
-1.52250763558616E-0002
-1.51880949177599E-0002
-1.41443508602797E-0002
-1.37615830614166E-0002
-1.41498627471368E-0002
-1.44387827768189E-0002
-1.45559541528852E-0002
-1.54617168814229E-0002
-1.53153722234616E-0002
-1.42922583421667E-0002
-1.29402008683141E-0002
-1.09559154700453E-0002
-8.74298533043300E-0003
-7.38372393542810E-0003
-5.97011051911170E-0003
-6.36202873767757E-0003
-6.44938988521820E-0003
-7.21111452415023E-0003
-7.55720525209896E-0003
-6.83001814891161E-0003
-6.64581035957351E-0003
-4.95981940501630E-0003
-2.92603758503777E-0003
-2.20893071386537E-0003
-2.70023361251476E-0003
-3.16301238619224E-0003
-4.21959988613515E-0003
-5.02776949330373E-0003
-5.64570611190965E-0003
-5.82206086571609E-0003
-5.13785841914224E-0003
-3.33807231048756E-0003
-1.82927746037339E-0003
-1.19066796153348E-0003
-1.42194049841388E-0003
-1.40359717281527E-0003
-3.26094564436486E-0003
-3.88867523744181E-0003
-4.89456992764176E-0003
-4.46534679823855E-0003
-3.29783325699857E-0003
-2.42968616427007E-0003
-4.98394152242923E-0004
 1.10868052326585E-0004
 1.80780221291335E-0004
-7.45087400666418E-0004
-7.80068789040217E-0004
-2.59170759953162E-0003
-3.22894722770392E-0003
-3.00531196726647E-0003
-2.01718492368040E-0003
 8.75988365394497E-0005
 1.64922120142541E-0003
 1.77937983332474E-0003
 2.12843938575586E-0003
 2.21065451239142E-0003
 1.51792331037720E-0003
 1.33253804448929E-0004
-7.77428155247486E-0004
 7.22132108064698E-0005
 1.30242870609397E-0003
 2.89979376804316E-0003
 3.97213760110425E-0003
 5.16158581666953E-0003
 5.82065736124922E-0003
 5.18836411248474E-0003
 4.28910423765399E-0003
 3.62563170774252E-0003
 3.33741679617970E-0003
 3.41611015985878E-0003
 4.53497583939266E-0003
 5.29130499524165E-0003
 7.16321437964315E-0003
 8.19130602536562E-0003
 8.29422895851360E-0003
 8.62402898656428E-0003
 7.27095355968471E-0003
 7.03431116336504E-0003
 6.71197294652468E-0003
 6.18003111015409E-0003
 8.08567658431766E-0003
 9.61923131926177E-0003
 1.06810442914550E-0002
 1.19236907655815E-0002
 1.19205184748783E-0002
 1.15373786011405E-0002
 1.09766552561364E-0002
 1.00308639920175E-0002
 9.21894994135589E-0003
 9.76545214007438E-0003
 1.06185442445841E-0002
 1.24860629249354E-0002
 1.30133003494886E-0002
 1.48342744051973E-0002
 1.40585783558743E-0002
 1.40993755389082E-0002
 1.28224789114722E-0002
 1.19438540279965E-0002
 1.14787038220693E-0002
 1.17508781041169E-0002
 1.23936872657418E-0002
 1.39575153532427E-0002
 1.47341158060983E-0002
 1.54832753764714E-0002
 1.60109947566371E-0002
 1.45259230965140E-0002
 1.32895315845654E-0002
 1.23135289336755E-0002
 1.17806858884197E-0002
 1.17737928213161E-0002
 1.16784231264566E-0002
 1.33213010938897E-0002
 1.45533625954904E-0002
 1.47951567019772E-0002
 1.43332372034995E-0002
 1.38902208704422E-0002
 1.19558833269119E-0002
 1.14531613019539E-0002
 1.03217454209060E-0002
 1.01600102650361E-0002
 1.01882551437932E-0002
 1.06674953788968E-0002
 1.17747854500948E-0002
 1.25606246616541E-0002
 1.25587944475618E-0002
 1.06907423333892E-0002
 9.60376179269932E-0003
 8.54966605471076E-0003
 7.41797395442163E-0003
 7.05696167393488E-0003
 7.28827690513203E-0003
 8.36140815115006E-0003
 8.40144260308832E-0003
 8.69886118569462E-0003
 8.83239707126896E-0003
 7.89389609981614E-0003
 5.70573296324062E-0003
 3.97994183481251E-0003
 3.67507018776029E-0003
 3.04250044981279E-0003
 3.30207755339387E-0003
 4.07498028976599E-0003
 4.59018340423306E-0003
 5.60126407899468E-0003
 5.31179191895754E-0003
 3.45024251264429E-0003
 2.42468415171146E-0003
 1.10331257494638E-0003
-5.46389039775153E-0004
-6.23340234331589E-0004
-2.94978192534684E-0004
 6.58514676046852E-0004
 1.72327594780099E-0003
 2.22210499043793E-0003
 1.46015878380941E-0003
 1.64570907049661E-0004
-7.21423787489548E-0004
-2.48118172270661E-0003
-3.70368448275349E-0003
-3.55045859527859E-0003
-3.31511409275803E-0003
-2.51104357720634E-0003
-9.91457939299859E-0004
-2.83245457064211E-0004
-1.00574195472169E-0003
-1.97073087269582E-0003
-3.17284323122910E-0003
-4.08700540865432E-0003
-5.18189640931831E-0003
-5.66220948311436E-0003
-5.42101500272921E-0003
-3.67214894902747E-0003
-3.19652879874013E-0003
-2.82157427011843E-0003
-2.63858677666439E-0003
-2.94979980633465E-0003
-4.26404956108548E-0003
-5.97067306160142E-0003
-6.98570433402524E-0003
-6.91027077335455E-0003
-6.32583527733269E-0003
-4.95201446435979E-0003
-4.07521710968959E-0003
-3.21555448053043E-0003
-3.16106006908404E-0003
-3.89591170915985E-0003
-5.48682177539127E-0003
-6.63484701281709E-0003
-7.33272284941815E-0003
-7.68685798523498E-0003
-7.07011586562256E-0003
-5.76508093849241E-0003
-4.30870427779981E-0003
-3.68309500887387E-0003
-4.18838132315522E-0003
-4.16032802287379E-0003
-6.28465858000995E-0003
-7.19330719334606E-0003
-7.36788788452342E-0003
-7.81198987513526E-0003
-7.05360559994678E-0003
-5.52735049805347E-0003
-4.56748787716780E-0003
-4.10868135333069E-0003
-3.94899148812019E-0003
-5.11983023650010E-0003
-5.47026705190653E-0003
-7.15470394207177E-0003
-8.20097806267228E-0003
-8.04342131877620E-0003
-7.01709696544227E-0003
-5.63900302665218E-0003
-4.79572171029229E-0003
-4.41582922945750E-0003
-4.08385468712349E-0003
-5.12842430709827E-0003
-6.11441070146359E-0003
-6.95429618076151E-0003
-7.51707975246347E-0003
-7.47717506464536E-0003
-7.44692071571853E-0003
-6.24456239175206E-0003
-4.49284671586662E-0003
-4.23140724895400E-0003
-4.15687393902521E-0003
-4.97311799893936E-0003
-6.35064288270795E-0003
-6.65784776256849E-0003
-7.58789262831878E-0003
-8.18967214211677E-0003
-6.87213154776682E-0003
-6.33831801148906E-0003
-4.54976127910253E-0003
-3.85180697119252E-0003
-3.65385179677693E-0003
-4.95116423168427E-0003
-5.41482810633378E-0003
-6.66492993262618E-0003
-7.55284464078514E-0003
-7.69831710591714E-0003
-6.66933649615791E-0003
-5.51916595626231E-0003
-4.89130777037603E-0003
-3.96941073756760E-0003
-3.43330752744797E-0003
-4.53050134448307E-0003
-5.34977431451055E-0003
-6.66357771156337E-0003
-7.81072672562551E-0003
-7.50749980001342E-0003
-7.25746531488002E-0003
-5.83758935384291E-0003
-4.64517331319759E-0003
-3.84053366590772E-0003
-3.68145204076571E-0003
-4.05947941066158E-0003
-5.46140163013074E-0003
-6.56976307358489E-0003
-7.03046674135450E-0003
-7.65959169475649E-0003
-7.18776725928106E-0003
-5.69880354588807E-0003
-4.63816861481446E-0003
-3.25799491879210E-0003
-3.93630730960410E-0003
-4.50293951959295E-0003
-5.97767444667009E-0003
-6.69720793612463E-0003
-7.43028163583218E-0003
-7.39882433343963E-0003
-6.97724645143542E-0003
-5.82217593417608E-0003
-4.41898177167926E-0003
-3.12960989913097E-0003
-3.58894676628597E-0003
-4.23135503964074E-0003
-5.60661702227117E-0003
-6.76944926636498E-0003
-7.07506536373355E-0003
-6.94084586632595E-0003
-6.44017022992746E-0003
-5.36431260152366E-0003
-4.22712812724925E-0003
-3.09051918048951E-0003
-3.78303260750556E-0003
-4.70797396953799E-0003
-4.91929444680092E-0003
-6.57107678217109E-0003
-6.81422426394619E-0003
-7.57010927041028E-0003
-6.21603662328800E-0003
-5.76398784046158E-0003
-4.24300681481542E-0003
-3.88044806908109E-0003
-2.93590993627695E-0003
-4.26815740664386E-0003
-5.11569661721609E-0003
-6.12292141664457E-0003
-6.88621878009967E-0003
-7.30526597588862E-0003
-6.30956912726411E-0003
-5.50674374399446E-0003
-3.73338267410968E-0003
-3.68271974640321E-0003
-3.49065956019924E-0003
-4.16328120171692E-0003
-5.66080555966774E-0003
-5.94314766007483E-0003
-7.62525823744575E-0003
-7.43563716148198E-0003
-6.78412945715950E-0003
-5.64237247173783E-0003
-3.88489204180379E-0003
-3.51488045265973E-0003
-2.97566176392489E-0003
-4.37969037651828E-0003
-4.97157550208672E-0003
-6.42683040625636E-0003
-7.06275040882626E-0003
-7.02236359857233E-0003
-6.70818420064235E-0003
-4.68629565733598E-0003
-4.11486631639900E-0003
-2.75321822690714E-0003
-3.42070565534205E-0003
-3.61756688721232E-0003
-4.72114291866445E-0003
-6.32022911403865E-0003
-6.95211231751363E-0003
-7.15804237748052E-0003
-5.97820549528464E-0003
-5.17997628844461E-0003
-3.89761306164680E-0003
-3.14888722502577E-0003
-2.59006810365037E-0003
-3.90881228458130E-0003
-4.83809142564933E-0003
-5.86668860547545E-0003
-6.79494811663955E-0003
-7.07375211708363E-0003
-6.16672621415233E-0003
-4.86318656023592E-0003
-3.58398376917159E-0003
-2.94225104282022E-0003
-2.78587237387777E-0003
-3.86225545999012E-0003
-4.86403308407468E-0003
-5.16023459483546E-0003
-6.26448258041143E-0003
-6.28160154692131E-0003
-5.03502012895853E-0003
-3.84093917624583E-0003
-2.79653239139160E-0003
-2.13380631881618E-0003
-2.13434523216562E-0003
-2.18913663935975E-0003
-3.48796931079887E-0003
-4.81134900217030E-0003
-5.01381749096761E-0003
-4.60327726190840E-0003
-4.31759392916879E-0003
-2.57296453483178E-0003
-1.76421040657626E-0003
-3.84644480917924E-0004
 2.01332739347227E-0004
-2.29993335635764E-0004
-1.78884452620618E-0003
-1.93183867995049E-0003
-2.68019209872712E-0003
-2.34856273694585E-0003
-1.74474324348947E-0003
 3.89060213417992E-0004
 1.22415287226106E-0003
 2.53050855895929E-0003
 2.74908445251903E-0003
 2.82722658424997E-0003
 1.80519312743194E-0003
 4.02819905521565E-0004
 4.24165467185011E-0004
 5.93523397398761E-0004
 1.93335517586285E-0003
 3.47815803360675E-0003
 4.73349789130013E-0003
 6.09387733974161E-0003
 6.46476007376061E-0003
 5.77760419511173E-0003
 5.13021667514471E-0003
 4.42131848134206E-0003
 3.88867197820753E-0003
 3.58266840795367E-0003
 5.28316817876311E-0003
 6.16324410794235E-0003
 7.77442464745968E-0003
 8.47988005432600E-0003
 8.57442600515618E-0003
 7.89640036529702E-0003
 6.98692949274846E-0003
 5.99243139523512E-0003
 4.90918353738089E-0003
 4.92267090168442E-0003
 5.82078264790820E-0003
 6.47682200275018E-0003
 7.11818502612405E-0003
 8.61188032881374E-0003
 7.52159567362867E-0003
 7.28146009378478E-0003
 6.04716821100646E-0003
 3.96950123486729E-0003
 3.35219391519387E-0003
 3.34840613275197E-0003
 3.61226867530910E-0003
 3.73690976328193E-0003
 4.61421371215166E-0003
 5.25539877932288E-0003
 5.42138147595422E-0003
 3.65281943964531E-0003
 2.85140383427356E-0003
 9.47894416034647E-0004
 2.50827339512501E-0004
-3.11503801018577E-0004
-3.55426999756344E-0004
 9.91997843785757E-0005
 9.17611841673842E-0004
 1.88286648163723E-0003
 1.72626886125168E-0003
 3.54448268066379E-0004
-1.10034680193965E-0003
-2.34781309158785E-0003
-3.17175119020696E-0003
-4.10659780350025E-0003
-3.76517053413007E-0003
-2.86837712241514E-0003
-1.08054650629111E-0003
-1.44645518435848E-0003
-1.46000315572842E-0003
-2.58487811366325E-0003
-3.70492038156528E-0003
-5.00575167185750E-0003
-6.33216967580670E-0003
-6.26653347355084E-0003
-5.84508037586624E-0003
-4.92757331174583E-0003
-4.21756950808855E-0003
-3.54919916020919E-0003
-3.32737119809466E-0003
-5.01566892299833E-0003
-6.46458484603838E-0003
-7.88284902676295E-0003
-9.63499508435755E-0003
-9.96746093760282E-0003
-9.68556846656893E-0003
-9.42504386711862E-0003
-8.16416110969997E-0003
-8.37510974047955E-0003
-9.31014390694302E-0003
-9.83641854034636E-0003
-1.15932220763670E-0002
-1.30939172628053E-0002
-1.36241766209940E-0002
-1.42330346745463E-0002
-1.30685289627787E-0002
-1.11382392038798E-0002
-8.76967448672357E-0003
-6.54012919285489E-0003
-5.15936272811353E-0003
-4.32173446095694E-0003
-2.63496871336140E-0003
-1.51625155129163E-0003
 7.43359608521280E-0004
 3.66373172915531E-0003
 8.63241852123755E-0003
 1.36483244410029E-0002
 1.85693849437268E-0002
 2.31392010427265E-0002
 2.74599319543079E-0002
 3.02949200523782E-0002
 3.23355127353100E-0002
 3.49603178585885E-0002
 3.64362148969271E-0002
 3.85057292304900E-0002
 3.94894175825804E-0002
 4.15876491241995E-0002
 4.22302718253655E-0002
 4.18086378490681E-0002
 3.92505571886498E-0002
 3.62509516040243E-0002
 3.17441341161104E-0002
 2.69250726739935E-0002
 2.12783484470678E-0002
 1.71874685350316E-0002
 1.38174698963987E-0002
 1.09192944279648E-0002
 7.96190589019799E-0003
 4.42102066061625E-0003
 7.09443096119463E-0004
-3.54304658258064E-0003
-6.92981466124896E-0003
-1.10587122289437E-0002
-1.42451294010105E-0002
-1.51774172167182E-0002
-1.60820302373778E-0002
-1.58770710204336E-0002
-1.57871045446393E-0002
-1.49600579067266E-0002
-1.53325414597967E-0002
-1.51073343100040E-0002
-1.63429321949011E-0002
-1.67913667501260E-0002
-1.68192376035145E-0002
-1.56950762989652E-0002
-1.37786835577758E-0002
-1.18691918902072E-0002
-9.65747609459394E-0003
-8.35084521551815E-0003
-7.17144415269648E-0003
-7.46842471563857E-0003
-8.33273855531414E-0003
-8.33450643648484E-0003
-8.33222452662221E-0003
-8.68568001558907E-0003
-7.03560237439776E-0003
-5.95867510772937E-0003
-4.27404267791050E-0003
-3.07404340826208E-0003
-3.46283362688589E-0003
-4.44338226370771E-0003
-4.78901322302312E-0003
-6.48234028321676E-0003
-6.61767648292978E-0003
-6.49644484305548E-0003
-5.38668612882235E-0003
-4.39673795041320E-0003
-2.95391392088150E-0003
-2.57319375581707E-0003
-2.15616355482313E-0003
-2.52007949904552E-0003
-4.17305516358031E-0003
-5.23148754657916E-0003
-6.01258997911429E-0003
-5.56718176114437E-0003
-5.05987908835052E-0003
-3.41617179283512E-0003
-1.51965903793062E-0003
-1.33329708117062E-0003
-1.26195869484675E-0003
-1.00556132295286E-0003
-2.48600274251251E-0003
-3.68177292772467E-0003
-4.09968394268599E-0003
-3.67078932751899E-0003
-2.28254846369868E-0003
-1.36782854446008E-0003
-2.22362577226882E-0004
 7.19700783507800E-0004
 1.48563487729335E-0003
 6.92438605481819E-0004
-1.25765144068418E-0004
-8.44827168454282E-0004
-1.00553014230037E-0003
-7.29653528261582E-0004
-3.72886367257394E-0004
 1.68232884487550E-0003
 3.18963754479417E-0003
 4.16227545073715E-0003
 3.95595622403816E-0003
 3.75138566932668E-0003
 2.84753280146861E-0003
 2.63801133931314E-0003
 1.74411729030562E-0003
 1.89176439839041E-0003
 2.98870366617855E-0003
 4.30801813813396E-0003
 6.66106879529403E-0003
 7.71360229547656E-0003
 7.24210763084835E-0003
 7.03591407727797E-0003
 6.54960404973296E-0003
 5.48124840281132E-0003
 5.44546728583791E-0003
 5.70428310395509E-0003
 6.78296324486986E-0003
 8.19183855618034E-0003
 1.00169349700077E-0002
 1.04548742954467E-0002
 1.13150452386854E-0002
 1.04100445194250E-0002
 9.44618672186308E-0003
 9.27415309044275E-0003
 8.83378328408766E-0003
 8.29191870761665E-0003
 9.43489295880054E-0003
 1.14820823086107E-0002
 1.26776758088763E-0002
 1.30436695649972E-0002
 1.35345163438557E-0002
 1.30000184562641E-0002
 1.19883904193233E-0002
 1.13111384521455E-0002
 1.08163325365027E-0002
 1.04554757457455E-0002
 1.17542342928299E-0002
 1.26827182597831E-0002
 1.33585453034114E-0002
 1.49944928484254E-0002
 1.47173622704716E-0002
 1.38065421291792E-0002
 1.31483800141373E-0002
 1.19223627936498E-0002
 1.08046321238982E-0002
 1.08047329921542E-0002
 1.11790115327130E-0002
 1.19805534502879E-0002
 1.29920896384372E-0002
 1.44805833968614E-0002
 1.38393546408954E-0002
 1.33858250443327E-0002
 1.13261655105068E-0002
 1.00646423489845E-0002
 9.38185938180112E-0003
 8.93958301500000E-0003
 9.00670025789291E-0003
 9.93280717969649E-0003
 1.15035726055227E-0002
 1.13286199715290E-0002
 1.17551127609185E-0002
 1.00477150572963E-0002
 8.88883404603543E-0003
 6.98850548423392E-0003
 6.37813004980142E-0003
 6.05673851509697E-0003
 6.74397775866314E-0003
 7.58796274950366E-0003
 7.68756502529218E-0003
 7.79294668306604E-0003
 7.67254330566711E-0003
 6.51069488207783E-0003
 5.74965668003204E-0003
 4.17541425505896E-0003
 2.92651385446460E-0003
 1.89304043631492E-0003
 2.61939422933567E-0003
 3.19224307307913E-0003
 4.31906913074229E-0003
 4.58879689759510E-0003
 4.03328300216100E-0003
 2.96768978146941E-0003
 1.89727675979044E-0003
-3.17517373786278E-0004
-7.79061417985885E-0004
-9.03369103651840E-0004
-1.34502075573185E-0003
-1.40776138636655E-0004
 1.24580663529570E-0003
 1.24250324777486E-0003
 8.84125365922155E-0004
 2.57444919634227E-0004
-1.90178758587065E-0003
-2.75523148796571E-0003
-3.55028951234767E-0003
-4.38762741642417E-0003
-4.05421966886980E-0003
-2.33112316796177E-0003
-1.47658154133042E-0003
-1.68870371028342E-0003
-1.73571418933877E-0003
-1.95026792215916E-0003
-3.87599438732016E-0003
-4.76851764983546E-0003
-5.74103280785221E-0003
-5.73845256854290E-0003
-6.00564021965115E-0003
-5.08137514887241E-0003
-3.76368671402483E-0003
-2.74002896361740E-0003
-3.33675027765264E-0003
-4.01819624469391E-0003
-5.60065060322876E-0003
-6.30762391799147E-0003
-7.77319793716366E-0003
-7.23713937062652E-0003
-6.27861191063099E-0003
-5.44075794610735E-0003
-4.36522479335624E-0003
-3.84886556612234E-0003
-4.12866939599847E-0003
-4.57232504836804E-0003
-5.92026393076405E-0003
-7.33546053066528E-0003
-8.14935258160927E-0003
-8.11992898269278E-0003
-7.73079823624262E-0003
-6.39499108963983E-0003
-4.74779589421912E-0003
-4.30603777016136E-0003
-4.32107363154588E-0003
-5.58555634510252E-0003
-6.13587267204578E-0003
-7.50088880199367E-0003
-8.42745714586263E-0003
-8.46075175965189E-0003
-7.47615440362261E-0003
-6.65505362575309E-0003
-5.17721140001185E-0003
-4.07545099850270E-0003
-4.55446360334346E-0003
-5.07047669036614E-0003
-6.61745012596329E-0003
-7.49080274421279E-0003
-8.06878035953158E-0003
-8.57688152565463E-0003
-7.56412023639205E-0003
-6.22033640785437E-0003
-5.37426342240121E-0003
-4.36744265728111E-0003
-4.42277621848540E-0003
-5.24099198010996E-0003
-6.71115470634944E-0003
-7.49762769694952E-0003
-7.94591677450598E-0003
-8.01097973479228E-0003
-7.76042700225419E-0003
-6.36411955865249E-0003
-4.64166206156034E-0003
-4.12338675310234E-0003
-4.05396026190237E-0003
-5.16265430631245E-0003
-6.73556111071901E-0003
-6.97445564512828E-0003
-8.07903734956122E-0003
-8.14170117665792E-0003
-7.40540975248955E-0003
-6.13837753745639E-0003
-4.66587339661768E-0003
-4.65395252309334E-0003
-4.68813010540409E-0003
-4.81962083672070E-0003
-6.43850946950145E-0003
-7.76873703917213E-0003
-7.78770139741462E-0003
-7.59151428346525E-0003
-6.92376120845446E-0003
-6.49699788246564E-0003
-5.22024440715238E-0003
-3.76251436300113E-0003
-4.58184353610501E-0003
-4.38614750074991E-0003
-6.47575490980035E-0003
-7.54077380337080E-0003
-7.37042459832159E-0003
-8.05611959684362E-0003
-6.65513583847982E-0003
-6.41568027184339E-0003
-5.16724720178211E-0003
-4.42356130562650E-0003
-4.23416428614145E-0003
-4.88550349125204E-0003
-5.58182742137867E-0003
-7.12039827910526E-0003
-7.42023194491137E-0003
-7.47309132318903E-0003
-6.50112291267771E-0003
-5.92371322650290E-0003
-4.31666576219639E-0003
-4.15855803848063E-0003
-3.39598038215902E-0003
-4.69579537379595E-0003
-5.29643826608774E-0003
-7.10790799497995E-0003
-7.72816899392117E-0003
-7.15130138877443E-0003
-6.80516009402217E-0003
-5.88953526796869E-0003
-4.54780648991403E-0003
-3.95547098906739E-0003
-3.49516417348093E-0003
-4.05245669239058E-0003
-5.55798746939561E-0003
-6.40734044420206E-0003
-7.90548832169112E-0003
-7.75821884771842E-0003
-6.74150634174035E-0003
-5.27489449131867E-0003
-4.65256300827455E-0003
-3.34542216031738E-0003
-3.32648434680864E-0003
-4.03101405406097E-0003
-5.28341363781073E-0003
-6.45580522180161E-0003
-7.18070726751767E-0003
-7.55716011612373E-0003
-6.76126964129653E-0003
-5.66382956132858E-0003
-4.47448022740820E-0003
-3.56873648814430E-0003
-3.23538923090641E-0003
-4.23362159576431E-0003
-5.63880811258041E-0003
-6.76607356594245E-0003
-7.05990522311513E-0003
-7.44521062840361E-0003
-6.46379211619459E-0003
-5.02797116119055E-0003
-3.77649573597811E-0003
-3.11900254514302E-0003
-2.86404758560598E-0003
-3.64665277833051E-0003
-4.96268317314110E-0003
-6.71742529214800E-0003
-7.15094155644938E-0003
-7.42106205298915E-0003
-6.66564256788186E-0003
-4.71567338214429E-0003
-4.40144139485458E-0003
-3.61242692561851E-0003
-2.82330856806353E-0003
-3.61538595878647E-0003
-4.70035806910779E-0003
-6.51600562245595E-0003
-7.38755527772698E-0003
-6.79316282242055E-0003
-5.85083674419705E-0003
-4.71591139497019E-0003
-3.61420840826564E-0003
-3.56281070292922E-0003
-2.82984985082577E-0003
-3.77181619907756E-0003
-5.17163947726307E-0003
-6.58020159541426E-0003
-6.57843727037033E-0003
-6.90441218619858E-0003
-6.53777483567252E-0003
-5.03262760967461E-0003
-3.46645001161062E-0003
-2.43353185529175E-0003
-2.83729728493033E-0003
-3.73649173724842E-0003
-4.95860563801179E-0003
-5.47288925333135E-0003
-6.58389030174006E-0003
-6.08534626263913E-0003
-5.82685105805547E-0003
-4.69852169937049E-0003
-3.54251027165315E-0003
-2.97744396239694E-0003
-2.93611058763392E-0003
-3.69010718506535E-0003
-4.11386510196327E-0003
-5.60216657608806E-0003
-5.94369972385041E-0003
-6.16262285392652E-0003
-5.46156516560657E-0003
-4.27788883721884E-0003
-3.00286748523580E-0003
-1.59297432245029E-0003
-1.28446320414145E-0003
-2.21585148938430E-0003
-3.74798766306725E-0003
-4.49622909025318E-0003
-4.44964152297422E-0003
-4.90257769952838E-0003
-3.65680714861061E-0003
-1.91881045974552E-0003
-1.45114731340028E-0003
 2.00737711533139E-0005
 4.33454542787953E-0004
-3.97308242796965E-0004
-8.45879981698016E-0004
-2.25109865705895E-0003
-2.43279327103873E-0003
-2.44874613030990E-0003
-1.63517663657578E-0003
 2.47049583080651E-0004
 1.83081126234226E-0003
 3.15580291436081E-0003
 2.75835047478951E-0003
 2.48396962540185E-0003
 2.40789539326818E-0003
 1.33299014400914E-0003
 9.56655769560903E-0004
 1.54845500043589E-0003
 2.68745645743503E-0003
 3.52999941224557E-0003
 5.82239093321090E-0003
 6.00799334061226E-0003
 6.89983820203337E-0003
 6.47106838006729E-0003
 5.48464090654693E-0003
 4.13615760438335E-0003
 4.44093715245624E-0003
 3.99041182380913E-0003
 5.47344374894785E-0003
 6.31459647167781E-0003
 8.29276192555793E-0003
 8.94497629635951E-0003
 8.55812678451623E-0003
 8.23211755119347E-0003
 6.75944909441457E-0003
 6.44862270465580E-0003
 5.56989445213602E-0003
 5.68395258586650E-0003
 5.91875307090891E-0003
 7.35568480489089E-0003
 7.73882970600286E-0003
 8.58741247673457E-0003
 8.50763462293859E-0003
 7.24085959925023E-0003
 5.88978194988287E-0003
 5.08182085893350E-0003
 3.64959204510866E-0003
 3.30661500152006E-0003
 4.02609170479190E-0003
 4.27037124343100E-0003
 5.08426618135336E-0003
 5.46525484779773E-0003
 5.15114755192759E-0003
 4.48253740687367E-0003
 3.37562467384596E-0003
 1.09537248704916E-0003
-1.32877358374275E-0004
 1.19639981821083E-0004
 7.58667294635769E-0004
 6.60772480144725E-0004
 1.54117918577809E-0003
 1.95968111557906E-0003
 1.60273774218736E-0003
 6.97610946070904E-0004
-3.58483438409449E-0004
-1.95388429172640E-0003
-2.84549773687553E-0003
-3.14526307165663E-0003
-2.97588617383057E-0003
-2.03209342717996E-0003
-5.31694020788089E-0004
-5.21301571180702E-0004
-7.38681670142550E-0004
-1.35275068071343E-0003
-2.76549649745638E-0003
-4.52580048923682E-0003
-5.21986832103995E-0003
-5.07514808647081E-0003
-4.60606857438676E-0003
-4.13958284330395E-0003
-3.15886314772932E-0003
-2.92693740438540E-0003
-3.20981674954280E-0003
-4.17216419349741E-0003
-5.71021486108486E-0003
-7.27563290232776E-0003
-8.08122817655536E-0003
-8.59534941942372E-0003
-8.69802135242480E-0003
-8.53672883896369E-0003
-7.90226216352456E-0003
-7.41050799717105E-0003
-8.50028455748480E-0003
-9.62446002520822E-0003
-1.11778542483546E-0002
-1.23988135297068E-0002
-1.29970612997125E-0002
-1.34500529651669E-0002
-1.21512628348044E-0002
-9.66461690582018E-0003
-7.80766848494247E-0003
-6.46199781921945E-0003
-4.69161818414888E-0003
-2.93878166703243E-0003
-2.49629369553495E-0003
-2.47334078947233E-0004
 1.42162931856918E-0003
 4.91370191372147E-0003
 8.77158248514380E-0003
 1.41521641755458E-0002
 1.90521419530926E-0002
 2.38404941476398E-0002
 2.83416646693512E-0002
 3.15949092691581E-0002
 3.34310911223599E-0002
 3.49136407824512E-0002
 3.76072696366332E-0002
 3.87997540965174E-0002
 4.12558627457132E-0002
 4.21743069313881E-0002
 4.28005592380831E-0002
 4.24111629316564E-0002
 3.98327230341041E-0002
 3.68058333844732E-0002
 3.21891514442706E-0002
 2.69667869569949E-0002
 2.28436273896330E-0002
 1.78651973269201E-0002
 1.42465505086774E-0002
 1.13758588909074E-0002
 8.28146666682685E-0003
 5.28964243595508E-0003
 1.27170133249855E-0003
-2.13377482245753E-0003
-6.45740636493111E-0003
-9.71212551582896E-0003
-1.28952830712862E-0002
-1.47003091995334E-0002
-1.49179333476693E-0002
-1.47945293215256E-0002
-1.47930030522126E-0002
-1.35504105621352E-0002
-1.34986282626251E-0002
-1.43773733093276E-0002
-1.52953710865638E-0002
-1.53959990666090E-0002
-1.52660746792549E-0002
-1.44051621754337E-0002
-1.30404448998450E-0002
-1.11815645214767E-0002
-8.50242244000358E-0003
-7.59036534289828E-0003
-5.95475012150782E-0003
-6.62840802416154E-0003
-6.92128589258629E-0003
-7.31397102048069E-0003
-7.35724568614597E-0003
-7.88459555323404E-0003
-6.52908264733966E-0003
-4.76075476019187E-0003
-3.58658594449207E-0003
-2.95560383407162E-0003
-2.40561868422339E-0003
-2.67140651397164E-0003
-4.06551451725267E-0003
-4.98011271831001E-0003
-5.68699494874294E-0003
-5.83598658640834E-0003
-4.80463271453729E-0003
-3.39875577002209E-0003
-1.84541025217474E-0003
-1.03236463910354E-0003
-1.65807106524702E-0003
-1.50122756168840E-0003
-3.32521589499117E-0003
-3.57556929094503E-0003
-4.54165913013633E-0003
-4.07998007494125E-0003
-3.67045126400072E-0003
-2.06220845361466E-0003
-5.55237028529436E-0004
 2.29209269636668E-0006
 2.00514512660219E-0004
-3.92537486703515E-0004
-9.56974342328333E-0004
-2.06465632104809E-0003
-3.26328245925501E-0003
-2.87101924620764E-0003
-1.68678178775814E-0003
 1.07328668736245E-0004
 9.47131146962809E-0004
 2.63234812116315E-0003
 2.17766290669605E-0003
 1.91489541255143E-0003
 1.27862867732141E-0003
-2.85412308425533E-0004
-6.76256638039381E-0004
 4.99568215953175E-0005
 5.87604931756743E-0004
 2.60138880238914E-0003
 4.00224185279295E-0003
 4.88518896460697E-0003
 4.92913535029246E-0003
 4.68947272568519E-0003
 4.06973992619183E-0003
 3.82960058431384E-0003
 2.57410382064511E-0003
 2.90294616119636E-0003
 4.80537809417014E-0003
 6.21240746368199E-0003
 7.91465560465469E-0003
 8.10985222139213E-0003
 9.35030742448181E-0003
 8.57148501431532E-0003
 7.73128419482332E-0003
 7.09508010319423E-0003
 6.30511549840611E-0003
 6.40453132699284E-0003
 7.47671466066796E-0003
 9.27272916553396E-0003
 1.12704363736259E-0002
 1.22539931474205E-0002
 1.25497482477467E-0002
 1.16390221266582E-0002
 1.09288648481804E-0002
 1.02467186703760E-0002
 9.21914591865907E-0003
 9.64868885010880E-0003
 1.04481224525159E-0002
 1.18962151220803E-0002
 1.41075419458123E-0002
 1.45106557854639E-0002
 1.53034256290325E-0002
 1.42933966286647E-0002
 1.29583057277987E-0002
 1.26488119183000E-0002
 1.13039517956785E-0002
 1.19935747983472E-0002
 1.25901449948453E-0002
 1.37605914467889E-0002
 1.48582747694983E-0002
 1.57204270372202E-0002
 1.62623217141465E-0002
 1.52242015648895E-0002
 1.43266535751060E-0002
 1.22577030109821E-0002
 1.23603901695465E-0002
 1.17872860651323E-0002
 1.24900306490590E-0002
 1.35864966892645E-0002
 1.45624398574211E-0002
 1.52828942271785E-0002
 1.54837675758797E-0002
 1.46440904260066E-0002
 1.24589251968640E-0002
 1.13687317217890E-0002
 1.02312607444619E-0002
 1.02624093783242E-0002
 1.07811982527315E-0002
 1.19727915415507E-0002
 1.26626982064528E-0002
 1.26572400260747E-0002
 1.27120600895758E-0002
 1.14466595752747E-0002
 9.81732606592055E-0003
 9.08947152566795E-0003
 7.43874837175993E-0003
 7.60979919864171E-0003
 7.10959522957553E-0003
 8.00669893782033E-0003
 9.35884789685011E-0003
 9.68117656859418E-0003
 9.35769290511032E-0003
 8.29165108258063E-0003
 6.16263862972097E-0003
 5.34460865331684E-0003
 3.85997601216355E-0003
 3.42582262334209E-0003
 4.19730264608156E-0003
 4.88119887923820E-0003
 5.05479444817379E-0003
 6.18964912098450E-0003
 5.83644783618303E-0003
 4.62025384795870E-0003
 3.11212774244896E-0003
 1.77049554050157E-0003
 2.65334858456064E-0004
 1.41912468418031E-0004
-1.27076533384345E-0005
 8.36644817711687E-0004
 2.34210478058481E-0003
 2.47762546178685E-0003
 2.78496834929234E-0003
 1.45346462048183E-0003
 8.21139505715957E-0006
-1.19546604352826E-0003
-3.03128990958491E-0003
-3.10023669999278E-0003
-2.09690139334959E-0003
-1.18327782876762E-0003
-7.98966620431147E-0004
 2.55276641543894E-0004
 1.56185096398851E-0004
-7.25653261592874E-0004
-2.58788019334938E-0003
-4.11981635128321E-0003
-4.98381596238557E-0003
-4.58646864856393E-0003
-4.12292893291653E-0003
-3.40546599525795E-0003
-1.77222653551494E-0003
-1.28709352291972E-0003
-1.60027129244015E-0003
-2.31644226248384E-0003
-4.12135989194751E-0003
-5.23731149746942E-0003
-5.61190362778080E-0003
-5.96323249021218E-0003
-5.37813702513542E-0003
-4.33077495163302E-0003
-3.14356596748821E-0003
-2.45820402825510E-0003
-2.50327742514549E-0003
-3.25394575088577E-0003
-4.79786997014835E-0003
-5.89604973021165E-0003
-6.74193570389161E-0003
-6.57551745563631E-0003
-6.21258692466779E-0003
-4.65049285666207E-0003
-3.62561792442811E-0003
-2.87028076419923E-0003
-3.32591567017977E-0003
-3.61111166327013E-0003
-5.33218279526652E-0003
-5.88136455710833E-0003
-6.45352035591582E-0003
-6.80220192198979E-0003
-6.24879309656719E-0003
-5.03776162065946E-0003
-3.89210961274201E-0003
-3.01258220048165E-0003
-3.26458574302776E-0003
-3.32595332927529E-0003
-4.95132176002598E-0003
-5.81523911418766E-0003
-6.63282051930142E-0003
-6.33252676238808E-0003
-6.13376156254357E-0003
-4.66870647485597E-0003
-3.99226835531351E-0003
-3.46168255674167E-0003
-2.86495431164365E-0003
-3.47399357899620E-0003
-5.32460801591407E-0003
-6.08153793395413E-0003
-6.48798715317474E-0003
-6.77896834876428E-0003
-6.44269100054216E-0003
-4.66613485413307E-0003
-3.98761601462293E-0003
-3.00911229359130E-0003
-3.28646001502640E-0003
-3.68198880089025E-0003
-5.09562771160701E-0003
-5.85357266905887E-0003
-6.61631191053405E-0003
-6.78610474159736E-0003
-6.24733756073236E-0003
-4.24835390189241E-0003
-3.44261922559434E-0003
-3.08742800864097E-0003
-2.53827355556516E-0003
-3.07766979089890E-0003
-4.72174104141086E-0003
-5.98484346028672E-0003
-6.16003687542007E-0003
-6.55217499822302E-0003
-5.66321380802664E-0003
-4.38336454194497E-0003
-3.50144101401807E-0003
-2.35550589760396E-0003
-2.66174324029932E-0003
-3.79582404976037E-0003
-4.34442491276296E-0003
-5.47974750974540E-0003
-6.21575044616222E-0003
-6.65138703285829E-0003
-5.36338980953802E-0003
-3.91849563622227E-0003
-2.90761055160641E-0003
-2.30782890777770E-0003
-2.82959592801298E-0003
-3.09665241323544E-0003
-4.72609349550439E-0003
-5.02381148095740E-0003
-5.73645760441191E-0003
-5.72889583223019E-0003
-5.82589952949498E-0003
-4.45809742625154E-0003
-3.31054363104606E-0003
-1.98576644780018E-0003
-2.50109887565294E-0003
-2.94456068189908E-0003
-4.06009226915136E-0003
-5.59631449291542E-0003
-6.46228232063108E-0003
-5.60993331302167E-0003
-5.33093346498892E-0003
-3.82924794676507E-0003
-3.25722952333520E-0003
-2.58823205709337E-0003
-2.02162771798963E-0003
-2.97643901443783E-0003
-3.86190448182947E-0003
-5.33580776344958E-0003
-6.42262836790684E-0003
-5.78072954924188E-0003
-5.28667067359901E-0003
-4.36395824645787E-0003
-2.89427404492264E-0003
-2.43697859252712E-0003
-1.72453526337995E-0003
-2.38796194187031E-0003
-4.28542063967422E-0003
-5.54529512950658E-0003
-6.08122900319643E-0003
-5.70947271783876E-0003
-4.81260508218282E-0003
-3.70839629902153E-0003
-2.47692821739978E-0003
-1.83621857928031E-0003
-1.80154978408924E-0003
-3.14694778118355E-0003
-3.49642741208265E-0003
-5.09294636359681E-0003
-6.00581314925783E-0003
-5.52482523357749E-0003
-4.78265300706385E-0003
-3.29055050883082E-0003
-2.96738995854406E-0003
-1.36323642492318E-0003
-2.25032337051351E-0003
-2.20223826807425E-0003
-4.07106504129746E-0003
-5.17264015023725E-0003
-5.50955354053387E-0003
-5.41366208538151E-0003
-4.76240130690246E-0003
-3.74438917462529E-0003
-2.83919605487690E-0003
-1.30094470691341E-0003
-2.08115141723693E-0003
-2.72593173515703E-0003
-3.23670141011390E-0003
-4.64051109940698E-0003
-4.97486731577571E-0003
-5.42147600414159E-0003
-4.88935084369507E-0003
-3.66762412713714E-0003
-2.60746706628259E-0003
-1.94700979949135E-0003
-1.09361659048316E-0003
-2.08242416865461E-0003
-3.06450873917101E-0003
-4.61855735792905E-0003
-4.96239425523721E-0003
-5.32035154537002E-0003
-4.67500412621267E-0003
-3.76555762199631E-0003
-2.00986367687512E-0003
-1.59085261112130E-0003
-1.85155004518598E-0003
-1.84320344463239E-0003
-2.89078654329346E-0003
-3.93833189019108E-0003
-4.66362725220129E-0003
-5.53575343794258E-0003
-4.38923636924271E-0003
-2.89242973891505E-0003
-2.10905236282845E-0003
-7.29981609828356E-0004
-1.43383874627134E-0003
-1.95680068375785E-0003
-3.23576115254407E-0003
-3.98812927251085E-0003
-4.22980230408207E-0003
-5.00385783812164E-0003
-4.08438918819073E-0003
-2.46291751101547E-0003
-1.34820323831031E-0003
 1.69886838959244E-0004
-1.04166418521466E-0004
-8.79193636886608E-0004
-1.80004374941061E-0003
-2.87674680488547E-0003
-3.00758405699614E-0003
-3.02474603902013E-0003
-1.94049255747274E-0003
-4.32761972610736E-0004
 2.21065408600697E-0004
 1.62061920785580E-0003
 1.26989838610714E-0003
 1.68061843799724E-0003
 2.61871199483414E-0004
-2.60577318675773E-0004
-1.19194683169971E-0003
-8.71526472839246E-0004
 6.21664070829957E-0004
 1.82392713917923E-0003
 3.34732842827518E-0003
 4.78173306209787E-0003
 4.62299918814889E-0003
 4.24519950144856E-0003
 3.45833403310446E-0003
 2.38649002802522E-0003
 2.50769324248783E-0003
 2.55462324290963E-0003
 3.65942057761642E-0003
 5.11872307522108E-0003
 7.19252536679701E-0003
 7.64110166067876E-0003
 8.04191352292180E-0003
 8.27710678798529E-0003
 7.02641843534287E-0003
 5.61567566072272E-0003
 5.88045237550709E-0003
 5.54659905497395E-0003
 7.07827923932704E-0003
 7.98011571569290E-0003
 9.88655781287284E-0003
 1.00762347927935E-0002
 1.08005299454151E-0002
 9.95198163459345E-0003
 8.57453036066779E-0003
 7.86272258586833E-0003
 6.59876625816548E-0003
 6.99923933061991E-0003
 7.38969808764188E-0003
 8.61779224401391E-0003
 9.08770413292417E-0003
 1.04506424073859E-0002
 9.56763793521654E-0003
 8.61624926153459E-0003
 7.62788802244357E-0003
 6.29976729727799E-0003
 5.38201470053384E-0003
 5.20592154518697E-0003
 4.92211085691505E-0003
 6.01034696554119E-0003
 6.69156887142907E-0003
 7.47663848723961E-0003
 6.77154129924908E-0003
 5.45153286247301E-0003
 4.51255868768571E-0003
 2.83797361837422E-0003
 1.78090556637397E-0003
 1.27568807599828E-0003
 1.52659828501201E-0003
 2.94383036905964E-0003
 3.05301223399033E-0003
 3.86482355283768E-0003
 3.75197730391405E-0003
 2.71962147809606E-0003
 7.24995652660276E-0004
-7.79654101088540E-0004
-1.70847767623198E-0003
-1.57297557864504E-0003
-1.62287122528058E-0003
-1.46535898367358E-0004
 3.14711002124771E-0004
 5.07776507912740E-0004
 6.55357079932658E-0004
 4.26409765891668E-0005
-1.76536449778485E-0003
-2.81270395456756E-0003
-3.87459514946503E-0003
-4.00202571150805E-0003
-3.78201720466776E-0003
-2.49146173967679E-0003
-1.36060239993433E-0003
-1.68719876809478E-0003
-1.47030759771934E-0003
-3.14925610184768E-0003
-4.60328067648373E-0003
-5.55995278859911E-0003
-6.97862335953275E-0003
-7.70786849091031E-0003
-7.82895968114791E-0003
-7.30866507900288E-0003
-6.66193806260557E-0003
-6.07671376678855E-0003
-6.67071736466847E-0003
-7.69717465500435E-0003
-9.14430743238465E-0003
-1.09880406676090E-0002
-1.15413354575012E-0002
-1.11870568206734E-0002
-1.08543331710318E-0002
-8.64089090636034E-0003
-6.37343435220891E-0003
-4.99254356925491E-0003
-3.48595413680663E-0003
-1.87064547552547E-0003
-1.15613838532391E-0003
 6.62917304179682E-0004
 2.44073820195654E-0003
 5.96152533650933E-0003
 1.04993221504434E-0002
 1.56845785076810E-0002
 2.04034403676703E-0002
 2.52679783232690E-0002
 2.92347845151003E-0002
 3.22747908082116E-0002
 3.46694161441684E-0002
 3.68832462748490E-0002
 3.81661508052974E-0002
 4.03161087586330E-0002
 4.25084597821711E-0002
 4.34800609691458E-0002
 4.45310661708434E-0002
 4.37186880696355E-0002
 4.17466945867454E-0002
 3.77980735453954E-0002
 3.31638501748851E-0002
 2.87794627009696E-0002
 2.34913896290916E-0002
 1.91653542848211E-0002
 1.56161222695882E-0002
 1.24115160512584E-0002
 9.82108882006485E-0003
 6.27943676969644E-0003
 2.64842647317931E-0003
-1.54853528994397E-0003
-5.32010481515754E-0003
-9.39269745106337E-0003
-1.20100958537470E-0002
-1.38054701662741E-0002
-1.43686526511107E-0002
-1.42560454607230E-0002
-1.31157671702975E-0002
-1.29987911371292E-0002
-1.24083505776113E-0002
-1.32622968819126E-0002
-1.37292772072872E-0002
-1.44110304445924E-0002
-1.45424434365445E-0002
-1.34572386473126E-0002
-1.15849457774924E-0002
-9.41721426885777E-0003
-7.95186389441459E-0003
-5.77773029628610E-0003
-5.38360011815915E-0003
-4.87187780274062E-0003
-5.32499786241365E-0003
-6.02159397151575E-0003
-6.24321997998807E-0003
-6.49241728171402E-0003
-5.38601544156345E-0003
-3.31784391434265E-0003
-2.00100442592422E-0003
-1.66375928736252E-0003
-1.54557321751304E-0003
-2.22939945924069E-0003
-3.03069537279054E-0003
-3.47880156463316E-0003
-4.70696304426190E-0003
-4.36275192433771E-0003
-3.32740069851946E-0003
-2.81243704581818E-0003
-1.07228213219021E-0003
 6.17604464133818E-0005
 7.75545406508847E-0005
-6.64559584334053E-0004
-1.75797985929354E-0003
-3.23685805484899E-0003
-3.58884639069685E-0003
-3.25028379327860E-0003
-2.10501055613717E-0003
-1.25776687321835E-0003
 4.70946878307791E-0004
 1.60542131001241E-0003
 9.10782651333475E-0004
 5.80931716044879E-0004
 2.57178232994276E-0004
-1.37734918271543E-0003
-1.41846437081261E-0003
-1.85270337880635E-0003
-5.22306286419528E-0004
 1.35411540347138E-0003
 2.36790303474667E-0003
 2.97425920185680E-0003
 3.79211094940611E-0003
 3.49621300727139E-0003
 2.28190392709743E-0003
 8.16593844795471E-0004
 3.36717832770517E-0004
 1.28615058841777E-0003
 2.41030101388349E-0003
 3.57135206438785E-0003
 5.31675513551383E-0003
 5.85716928668465E-0003
 6.55239264962562E-0003
 6.06339223830588E-0003
 5.26463743958518E-0003
 4.67321550049091E-0003
 3.63264845548236E-0003
 4.37927216261033E-0003
 5.74440814196898E-0003
 6.85129181530289E-0003
 8.79854505783208E-0003
 9.24571409898137E-0003
 9.60076135756127E-0003
 9.49776115418216E-0003
 8.92691075695914E-0003
 8.19880350858153E-0003
 7.53791318909955E-0003
 7.36673639046724E-0003
 8.44394168555013E-0003
 9.97701719175545E-0003
 1.20635320021826E-0002
 1.29616078856661E-0002
 1.36820542198595E-0002
 1.28891755474746E-0002
 1.16458480013605E-0002
 1.14506728457370E-0002
 1.06836513328460E-0002
 1.10902404214511E-0002
 1.21138895343195E-0002
 1.34547444655938E-0002
 1.46117939990701E-0002
 1.55107936090106E-0002
 1.56487965835589E-0002
 1.50826263597014E-0002
 1.37406958232001E-0002
 1.34359668671803E-0002
 1.24011071421106E-0002
 1.27722047063771E-0002
 1.31808340575858E-0002
 1.44165636534108E-0002
 1.60188879492110E-0002
 1.63078931257008E-0002
 1.68115483197119E-0002
 1.65132009708865E-0002
 1.51845936108924E-0002
 1.36351907033640E-0002
 1.25810364839976E-0002
 1.30562620334271E-0002
 1.34405101164725E-0002
 1.47801805971117E-0002
 1.55837303897925E-0002
 1.59175292161594E-0002
 1.59008108866880E-0002
 1.54999756792279E-0002
 1.41381333636721E-0002
 1.25394740215950E-0002
 1.11353677422090E-0002
 1.14721495175120E-0002
 1.12702357545901E-0002
 1.26553020724635E-0002
 1.37605780741269E-0002
 1.36443064569483E-0002
 1.33258240999145E-0002
 1.19510477482123E-0002
 1.10855765457228E-0002
 9.61504953561763E-0003
 8.12210153764368E-0003
 8.10302283775212E-0003
 8.34420215478822E-0003
 9.60468527454922E-0003
 1.02991061518942E-0002
 1.04369808959448E-0002
 1.03612250440595E-0002
 8.89212809484112E-0003
 7.34444181910127E-0003
 5.70537933567715E-0003
 4.18835022427482E-0003
 4.77638396376382E-0003
 4.94674296363436E-0003
 5.16610413695208E-0003
 6.49548615211635E-0003
 6.93395201099055E-0003
 6.65133107359322E-0003
 5.46405062590396E-0003
 3.31570169636655E-0003
 2.29341459731037E-0003
 1.47844946652979E-0003
 9.98791669049777E-0004
 9.24128740486381E-0004
 2.23540244342121E-0003
 2.41437374260395E-0003
 3.27447124026204E-0003
 2.94905920913939E-0003
 2.24411295323373E-0003
 4.98601912212889E-0004
-1.02202792214802E-0003
-1.49959900494582E-0003
-1.68160727277227E-0003
-1.58783540444708E-0003
-7.81667570237642E-0004
 3.50585488971437E-0004
 2.63325875259022E-0004
 7.90117498660675E-0004
-3.21585561134095E-0004
-1.98403279739107E-0003
-2.76677363706092E-0003
-3.83175605849526E-0003
-4.38828714744133E-0003
-3.23135159410068E-0003
-2.41608296507362E-0003
-1.27601696134770E-0003
-5.69816202952971E-0004
-1.07325581519956E-0003
-1.58973415791800E-0003
-3.21539365268719E-0003
-4.12101201347830E-0003
-5.54187500046229E-0003
-5.67311030629445E-0003
-4.74239074194607E-0003
-3.51892490181989E-0003
-2.81729377346973E-0003
-2.13703162781605E-0003
-1.54359696525826E-0003
-2.74734288515755E-0003
-4.32860948689627E-0003
-4.90784939617544E-0003
-6.51856399863284E-0003
-6.12742482186818E-0003
-5.87827491073626E-0003
-4.19442428228176E-0003
-3.43308997519074E-0003
-2.69840179244222E-0003
-2.19154584015468E-0003
-3.14584938030808E-0003
-4.38371286742700E-0003
-5.90227908174294E-0003
-6.60582354330528E-0003
-6.53183616684507E-0003
-5.66827910135001E-0003
-4.63944784049743E-0003
-3.36466362081539E-0003
-2.82466821826656E-0003
-2.33935580731955E-0003
-3.44402070561134E-0003
-4.16821590060354E-0003
-5.81161990075528E-0003
-6.03024674341656E-0003
-6.34578485500376E-0003
-5.44994088273854E-0003
-4.17973395678067E-0003
-3.39337275871313E-0003
-2.17267079786293E-0003
-2.53136850855856E-0003
-3.19677323150880E-0003
-4.67778567088017E-0003
-5.79764134016455E-0003
-6.11966917655381E-0003
-6.43025225164371E-0003
-5.79067535380868E-0003
-4.14691067624431E-0003
-3.36281535746214E-0003
-2.63346562501433E-0003
-2.86965539736867E-0003
-3.46832911177154E-0003
-4.86412338872347E-0003
-5.67743863740959E-0003
-6.70561823431850E-0003
-6.17685996196531E-0003
-5.87605577529455E-0003
-4.72064211553288E-0003
-3.10487387028961E-0003
-2.77911637081140E-0003
-2.57233505358544E-0003
-3.48749306590248E-0003
-4.47090292706208E-0003
-5.14007140988984E-0003
-6.62735898821094E-0003
-6.36435960407172E-0003
-5.70041465669393E-0003
-4.64358307760524E-0003
-3.03901938861334E-0003
-2.15450024085111E-0003
-2.15733102546205E-0003
-3.50404600074229E-0003
-4.37441993030525E-0003
-5.16255425564488E-0003
-5.83645003008999E-0003
-6.30049027467932E-0003
-5.39714269163367E-0003
-4.52725226832540E-0003
-2.54192651069809E-0003
-1.98007051578945E-0003
-2.72769953105541E-0003
-3.43148523095672E-0003
-4.11108013359618E-0003
-5.33717782189606E-0003
-6.50300690187455E-0003
-5.63167238638268E-0003
-5.52842307913841E-0003
-4.28511518775861E-0003
-2.74969088374577E-0003
-1.93537141410172E-0003
-2.45671688736384E-0003
-2.91919384001312E-0003
-4.37303188348315E-0003
-5.00607398346629E-0003
-6.02486524011034E-0003
-6.18819103764219E-0003
-5.48144153913284E-0003
-4.18712725949806E-0003
-2.46244945666196E-0003
-2.17811255541720E-0003
-2.44828127609051E-0003
-2.71863882054126E-0003
-4.35771614862757E-0003
-4.76220306138075E-0003
-5.42582928222756E-0003
-5.53930551855643E-0003
-5.13390954817722E-0003
-3.68414490799136E-0003
-2.77620264597149E-0003
-2.05210945691665E-0003
-2.02075790384653E-0003
-2.82330272645030E-0003
-4.07104401430680E-0003
-4.98282418420386E-0003
-6.11092056854855E-0003
-6.20895417569179E-0003
-5.12986505967900E-0003
-3.77327134194897E-0003
-2.84120217258808E-0003
-1.53744958472370E-0003
-2.24885561020544E-0003
-2.63318449024934E-0003
-3.42534242105129E-0003
-4.69624258632261E-0003
-6.08496384825491E-0003
-5.19261898194751E-0003
-4.58327201376635E-0003
-4.11172982316562E-0003
-2.41005138319112E-0003
-1.88384753426865E-0003
-1.59363986790443E-0003
-2.41975210021486E-0003
-4.13692661085147E-0003
-4.93167758195848E-0003
-6.00941002753653E-0003
-5.77568769860665E-0003
-4.83713743306396E-0003
-4.14411765905134E-0003
-2.12631968132701E-0003
-1.30806342477138E-0003
-1.65231261808172E-0003
-2.37722733872133E-0003
-3.48098180967921E-0003
-4.96959746687921E-0003
-5.81382601766231E-0003
-5.36605513453341E-0003
-4.47348515477069E-0003
-3.35257100977752E-0003
-2.73554309373551E-0003
-1.80055664878290E-0003
-1.89124666506261E-0003
-2.71732878970427E-0003
-3.83139949273933E-0003
-4.27537478367790E-0003
-5.42386105575860E-0003
-5.30078746084735E-0003
-5.02764444830379E-0003
-3.05536646632289E-0003
-2.00870386104230E-0003
-1.15885262288679E-0003
-1.62152677387415E-0003
-2.28071529127201E-0003
-3.03409623687170E-0003
-4.54670689698644E-0003
-5.45127346301017E-0003
-5.05364180727161E-0003
-4.24502712682821E-0003
-3.15404852537620E-0003
-2.09234629848754E-0003
-1.03587659186387E-0003
-8.78510700034236E-0004
-2.19445564740118E-0003
-2.98215484071808E-0003
-3.93626059788319E-0003
-4.86885950048208E-0003
-5.16634165430264E-0003
-4.19369174718130E-0003
-2.58103105991296E-0003
-1.71333616278434E-0003
-2.90131385884571E-0004
-2.60607050940469E-0004
-9.41366385971554E-0004
-1.77570403903154E-0003
-3.37629141618827E-0003
-3.76917973140974E-0003
-3.31072444631545E-0003
-2.62308490157844E-0003
-1.19157084871119E-0003
-1.82287411941682E-0004
 9.88932380110535E-0004
 1.32708215731547E-0003
 9.27891101377470E-0004
 4.53221935527402E-0004
-7.56291894151863E-0004
-1.73896719280844E-0003
-1.34924913789147E-0003
 4.47210127474517E-0004
 1.88679022485808E-0003
 3.18564180525465E-0003
 3.66004823573327E-0003
 3.90542695719039E-0003
 3.81848825657647E-0003
 3.38412648411404E-0003
 2.59693301176053E-0003
 2.20511762202261E-0003
 2.56809770046566E-0003
 3.76829206367028E-0003
 5.12417647605536E-0003
 6.29466895177511E-0003
 7.17082986563990E-0003
 8.10239860167860E-0003
 7.61214574183606E-0003
 6.41661102015907E-0003
 5.88153121941443E-0003
 4.75900798488017E-0003
 5.12993018204709E-0003
 6.03315263245067E-0003
 7.53175190717893E-0003
 8.91493386668003E-0003
 1.02350492149931E-0002
 1.00492830960602E-0002
 9.65265708410619E-0003
 7.90639815632222E-0003
 7.30333800624826E-0003
 6.11387569500258E-0003
 6.66687024503306E-0003
 6.64341152588545E-0003
 7.82695908827190E-0003
 9.02895471483596E-0003
 9.26545637273116E-0003
 9.30200255189780E-0003
 8.42749588155168E-0003
 7.11159900132549E-0003
 5.33793363830712E-0003
 4.20193951043205E-0003
 4.51531348461331E-0003
 4.53743225252311E-0003
 5.51295866733620E-0003
 6.03047602412613E-0003
 6.34232680912877E-0003
 6.01569558609656E-0003
 5.68831505410519E-0003
 3.38842593548813E-0003
 2.44790729486779E-0003
 8.35249672678969E-0004
 1.11280807623881E-0003
 8.18509262924591E-0004
 2.18600773312436E-0003
 2.57179485267627E-0003
 3.39617747792170E-0003
 2.79405462166766E-0003
 1.33925573731530E-0003
 5.58684864411352E-0004
-9.28303167642469E-0004
-2.16888153009674E-0003
-1.99500176622321E-0003
-1.59781501690684E-0003
-9.81193173879960E-0004
 1.31732060134027E-0004
 7.44760619956862E-0004
 1.32326258531837E-0004
-6.37831732105023E-0004
-2.03112732125496E-0003
-3.77209300814187E-0003
-4.74279289775867E-0003
-4.36298022850955E-0003
-3.79867323955107E-0003
-3.71008987373927E-0003
-2.74831397166256E-0003
-2.14886620136805E-0003
-2.32989455819954E-0003
-3.29011085679980E-0003
-5.08781578424767E-0003
-6.56910799881630E-0003
-7.96450237964517E-0003
-8.68353414651974E-0003
-8.70046635817499E-0003
-7.20050413734310E-0003
-7.12068091976862E-0003
-7.22130739395265E-0003
-7.85436215730780E-0003
-8.61871573888075E-0003
-1.06652009588585E-0002
-1.17672341180448E-0002
-1.22099133056448E-0002
-1.24726895473855E-0002
-1.17096258533015E-0002
-9.66564374021851E-0003
-7.07853315763614E-0003
-5.13235176756312E-0003
-4.03496990288694E-0003
-2.73027382692499E-0003
-2.05598326796597E-0003
-4.28565615440500E-0004
 1.93049400729731E-0003
 5.78131895602801E-0003
 9.98721990832116E-0003
 1.43607615486665E-0002
 2.03150578197705E-0002
 2.43664892833755E-0002
 2.82780488368015E-0002
 3.21644273380293E-0002
 3.40221153874199E-0002
 3.60599411471423E-0002
 3.80309074996866E-0002
 3.98457666285818E-0002
 4.16667584910566E-0002
 4.24679149099641E-0002
 4.31861299244287E-0002
 4.30041504929436E-0002
 4.04000832389678E-0002
 3.73494467407198E-0002
 3.26476068559958E-0002
 2.81476398537459E-0002
 2.27013895908003E-0002
 1.84747824572758E-0002
 1.50879815446499E-0002
 1.23452082355427E-0002
 9.18256824318100E-0003
 5.97771074764956E-0003
 2.29671973509040E-0003
-2.18364792102923E-0003
-6.10648228351356E-0003
-1.01887881022959E-0002
-1.27818972451355E-0002
-1.41422363212670E-0002
-1.49659713470854E-0002
-1.51039297455670E-0002
-1.45526383355941E-0002
-1.37990205368631E-0002
-1.35581034869754E-0002
-1.37794256191147E-0002
-1.47161558828609E-0002
-1.53355744107188E-0002
-1.49774350489369E-0002
-1.46980986524061E-0002
-1.25943031386593E-0002
-1.10763197502537E-0002
-8.21048024547120E-0003
-7.11769450193926E-0003
-5.95719129025185E-0003
-6.54643983979784E-0003
-6.91996876377540E-0003
-7.81323248576010E-0003
-7.33613923730230E-0003
-7.16675490850481E-0003
-6.53079389876144E-0003
-4.33532101667644E-0003
-3.26617007854100E-0003
-2.76053987168000E-0003
-2.39145703572655E-0003
-2.66658153460448E-0003
-3.87188934126919E-0003
-5.43673858590138E-0003
-5.79408362194542E-0003
-5.90065133495823E-0003
-4.29898777645788E-0003
-3.39738631086862E-0003
-2.44758544256600E-0003
-1.14741944868491E-0003
-8.03897263807457E-0004
-1.65463888104462E-0003
-2.96332461970556E-0003
-4.33042311820929E-0003
-4.21219500048083E-0003
-3.88564098207120E-0003
-2.98850858526268E-0003
-1.96056500861330E-0003
-1.18739940349196E-0003
 2.67566766819838E-0004
-1.42941111581185E-0004
-4.68728238423729E-0004
-1.75802338938622E-0003
-2.44293211172475E-0003
-3.09564671190525E-0003
-2.39813330378049E-0003
-1.29997042165858E-0003
-1.99019169194496E-0005
 1.15305197101383E-0003
 2.06128725158145E-0003
 2.14220523563645E-0003
 2.26296847289460E-0003
 1.51863758758727E-0003
-4.88515257517919E-0005
-1.33574961166907E-0005
 2.90413919681153E-0004
 5.16910140345286E-0004
 2.27071116377563E-0003
 3.73477641865158E-0003
 4.60241974688113E-0003
 5.60978679442340E-0003
 5.30245067053417E-0003
 3.92975437243337E-0003
 3.32986938018675E-0003
 3.12282030949479E-0003
 3.47036351297643E-0003
 4.48296143174325E-0003
 5.62724683811893E-0003
 6.89479259052799E-0003
 8.47722148704465E-0003
 8.71698755217252E-0003
 7.97866744475409E-0003
 7.63269216865330E-0003
 6.71693446221487E-0003
 6.16031916050142E-0003
 6.93536900458938E-0003
 8.12723817184355E-0003
 9.64511758338248E-0003
 1.03789647419058E-0002
 1.16557159026231E-0002
 1.18021155482690E-0002
 1.21089575924971E-0002
 1.09431347282385E-0002
 9.86868002282841E-0003
 9.75699923162721E-0003
 9.81929973887156E-0003
 1.08089231144106E-0002
 1.15686764548552E-0002
 1.37143583582391E-0002
 1.39607903442533E-0002
 1.47129412622679E-0002
 1.40676394868276E-0002
 1.30929587077577E-0002
 1.21858458771181E-0002
 1.08647995885172E-0002
 1.12120913118521E-0002
 1.26128565329493E-0002
 1.39251887535990E-0002
 1.44723086126064E-0002
 1.53859384681383E-0002
 1.51547550893599E-0002
 1.52657782450113E-0002
 1.34472833895327E-0002
 1.21697564250643E-0002
 1.12836333393315E-0002
 1.18289272049723E-0002
 1.18218073385499E-0002
 1.32143897518394E-0002
 1.40966294722194E-0002
 1.48944740822959E-0002
 1.47229836035274E-0002
 1.42048743222149E-0002
 1.28682612389158E-0002
 1.12669869492991E-0002
 1.04413163336936E-0002
 9.97271985769143E-0003
 1.01480992992331E-0002
 1.10670975568673E-0002
 1.23779831663581E-0002
 1.26277065714235E-0002
 1.22842092001771E-0002
 1.09492600331930E-0002
 9.46936724091958E-0003
 7.83045464637227E-0003
 7.03277960040411E-0003
 6.42923859876358E-0003
 6.86921957343028E-0003
 8.01410558740251E-0003
 9.16442342795686E-0003
 8.81768598509789E-0003
 8.98695617928041E-0003
 7.68157820065369E-0003
 5.79066653871544E-0003
 4.50619458907260E-0003
 3.66760710850883E-0003
 3.08677880189936E-0003
 3.31604528427108E-0003
 4.03918524427211E-0003
 4.54890533600565E-0003
 5.42110439503840E-0003
 5.23927083998359E-0003
 3.72302706226710E-0003
 2.44393903993261E-0003
 8.76509303074063E-0004
-2.86153217029038E-0004
-2.94380310865524E-0004
-2.20375483428400E-0004
 6.43321859178429E-0004
 1.02843735753767E-0003
 2.27257593470419E-0003
 1.43924851912388E-0003
 2.18989292272699E-0004
-1.01980958491808E-0003
-2.64394650807835E-0003
-2.95575550314682E-0003
-3.41423819733444E-0003
-2.70394457405933E-0003
-2.06078925567497E-0003
-1.03970456268152E-0003
-3.71742562852753E-0004
-4.24841232280660E-0004
-1.64271078636641E-0003
-2.87419619836971E-0003
-4.58819400233829E-0003
-5.08773593432266E-0003
-5.32178866836372E-0003
-5.01733852601499E-0003
-4.37054537310408E-0003
-3.38766681430594E-0003
-2.84142672322055E-0003
-2.89266486822263E-0003
-3.15639440226110E-0003
-4.78078930538266E-0003
-5.97907275435307E-0003
-7.17269588384986E-0003
-6.66980327217350E-0003
-5.73660193671054E-0003
-5.51472010970594E-0003
-3.64207971376661E-0003
-2.85363314349556E-0003
-3.54799648119670E-0003
-4.69414527681922E-0003
-5.19220431382433E-0003
-6.70741152201853E-0003
-7.28900395635009E-0003
-7.75387696732551E-0003
-6.41721983075840E-0003
-5.47270903748230E-0003
-4.26007032919140E-0003
-4.26185843553823E-0003
-3.96329089770916E-0003
-4.28988590729171E-0003
-5.44766708618288E-0003
-6.77773539837714E-0003
-8.09586876970489E-0003
-8.26812633333374E-0003
-7.34310203502955E-0003
-5.64967863451983E-0003
-4.69975487080577E-0003
-4.09766565700072E-0003
-4.14729874317364E-0003
-4.44655554237150E-0003
-6.11372037657501E-0003
-7.08310748686823E-0003
-7.70130464881499E-0003
-8.34234413254902E-0003
-7.01952734658582E-0003
-5.78972472281936E-0003
-5.23228871182611E-0003
-3.95668775578028E-0003
-4.28711718118264E-0003
-5.17655972009528E-0003
-6.19179747899909E-0003
-6.90549500606035E-0003
-7.99073632500019E-0003
-7.90822930577168E-0003
-7.28112935930049E-0003
-5.62849474985613E-0003
-4.56077756968985E-0003
-3.72435161597486E-0003
-4.44061247125805E-0003
-4.74258178670635E-0003
-6.22312653599895E-0003
-7.49552013034038E-0003
-7.89257695749204E-0003
-7.98787968505834E-0003
-6.69589366220475E-0003
-5.90766697258519E-0003
-5.07673590231627E-0003
-4.01848853909976E-0003
-3.79258275566419E-0003
-4.39583698701997E-0003
-5.50830556262414E-0003
-7.05103100519506E-0003
-7.91068587717292E-0003
-7.78609110537538E-0003
-7.40355556962247E-0003
-5.67263823871913E-0003
-4.09180684518967E-0003
-4.23696907062437E-0003
-3.58641020037122E-0003
-4.81568753320988E-0003
-5.58280874467503E-0003
-6.90112824791315E-0003
-7.53785388160427E-0003
-7.72061209817351E-0003
-6.60663515144540E-0003
-5.97582763402414E-0003
-4.16327919026650E-0003
-3.88372604907099E-0003
-3.74444119703255E-0003
-4.52139528668202E-0003
-6.05828702388764E-0003
-6.74629730535336E-0003
-7.64487307099927E-0003
-7.23961972071871E-0003
-6.86783147601243E-0003
-5.19180894352123E-0003
-4.52530274001502E-0003
-3.59100849151892E-0003
-4.01551886941053E-0003
-4.60026646963324E-0003
-5.11682733623108E-0003
-6.37985718578446E-0003
-7.39286772575373E-0003
-7.02649155733785E-0003
-6.52292574891370E-0003
-5.24906936490842E-0003
-4.34833644882093E-0003
-3.25634546887166E-0003
-3.14358186811601E-0003
-4.20858492018159E-0003
-5.50292816692826E-0003
-6.24482537009192E-0003
-7.12968124735289E-0003
-7.13935737063318E-0003
-6.73726524871107E-0003
-5.75297405916520E-0003
-4.58248792922384E-0003
-3.40182327836830E-0003
-3.37694288646791E-0003
-4.68246049843250E-0003
-4.90001079095063E-0003
-6.42780687989935E-0003
-6.91596837170607E-0003
-7.42477150093154E-0003
-6.49015169881192E-0003
-5.48780017141534E-0003
-4.36809245568362E-0003
-3.72895731026371E-0003
-3.75244432587886E-0003
-4.50747517192264E-0003
-5.52284133432074E-0003
-6.34187317180935E-0003
-7.54318903811343E-0003
-7.62536723494088E-0003
-6.20113975567609E-0003
-4.98785497637385E-0003
-4.08878765462459E-0003
-3.37066905765173E-0003
-3.28733043005764E-0003
-3.93668135008040E-0003
-5.49908149465396E-0003
-6.09007147154207E-0003
-7.62738812708319E-0003
-7.22675290576136E-0003
-6.85057378459345E-0003
-5.56557826167137E-0003
-3.63311988087181E-0003
-2.79741422957465E-0003
-3.49132570591461E-0003
-4.44712954401614E-0003
-5.61913482468121E-0003
-6.53433267493963E-0003
-7.53230029973681E-0003
-6.94193810420843E-0003
-6.71743634842887E-0003
-5.54483091495892E-0003
-4.23991368097782E-0003
-3.38943098335662E-0003
-2.89639173068128E-0003
-3.66197343461023E-0003
-5.23154330016677E-0003
-6.10067812670325E-0003
-6.92382388658669E-0003
-6.99428583477797E-0003
-6.19382603359884E-0003
-5.15419254607807E-0003
-3.86398160758063E-0003
-3.52500779726201E-0003
-3.52552386342331E-0003
-3.52194139991473E-0003
-4.88519655164210E-0003
-6.51484209822976E-0003
-6.61980716540201E-0003
-6.71757971745084E-0003
-5.97322259659875E-0003
-4.77527914525301E-0003
-3.25094100546357E-0003
-2.34607191078315E-0003
-2.82733546549449E-0003
-3.56167219080545E-0003
-4.71755281557080E-0003
-5.68406555880945E-0003
-6.52947306336239E-0003
-6.65352862448648E-0003
-5.21294740059340E-0003
-3.73357575112505E-0003
-3.32687938041339E-0003
-2.37664710712427E-0003
-1.57498590425915E-0003
-2.87355341714255E-0003
-4.05577230632608E-0003
-5.07173379388125E-0003
-4.88098706735041E-0003
-5.05187205232264E-0003
-4.55144352045936E-0003
-2.82685406689771E-0003
-1.10275161271493E-0003
-6.46826202046321E-0004
-7.15845789133663E-0005
-9.72376054926336E-0004
-1.22311363732875E-0003
-2.87645899885597E-0003
-3.07178702023842E-0003
-2.65424581587361E-0003
-1.03256516271068E-0003
 5.39314900669168E-0005
 1.57880477301895E-0003
 3.01251445681356E-0003
 2.49449236607239E-0003
 2.19468236955389E-0003
 1.66745487465418E-0003
 9.58822109783515E-0004
 3.18008202487399E-0005
 7.95856433602063E-0004
 1.90121393929454E-0003
 3.78070960148312E-0003
 4.97921192834729E-0003
 6.07577355760707E-0003
 6.58879396557144E-0003
 5.71533789576502E-0003
 4.63588420026026E-0003
 4.18570660952555E-0003
 3.65129809986641E-0003
 3.90653695687680E-0003
 4.49788872751863E-0003
 6.42730153236750E-0003
 7.11992838660949E-0003
 8.70330259771696E-0003
 9.02525626648450E-0003
 8.09521523852991E-0003
 7.08977507008067E-0003
 5.98284624437172E-0003
 4.90890102545078E-0003
 4.49806050230821E-0003
 5.27970491403756E-0003
 6.17614561836464E-0003
 7.11758300221490E-0003
 8.52386567080338E-0003
 7.66697315596788E-0003
 6.99295232043847E-0003
 5.81938185538292E-0003
 4.36793792696420E-0003
 3.35420311482824E-0003
 3.02744168321002E-0003
 3.45663250909585E-0003
 3.73077511836868E-0003
 5.07926465071382E-0003
 5.24164496892895E-0003
 4.57431803301055E-0003
 4.11465583412029E-0003
 2.59435685081817E-0003
 5.76395147085532E-0004
-3.08732911692940E-0004
-9.68489317866474E-0004
-6.75763201877954E-0004
 6.27865780498948E-0004
 1.75444435715932E-0003
 1.74818663502057E-0003
 1.03167980498656E-0003
 6.45453558583471E-0004
-1.47129041645185E-0003
-2.55622704477925E-0003
-4.09676852804682E-0003
-3.71401314918197E-0003
-3.54710397509512E-0003
-2.66366395797269E-0003
-1.28703754821616E-0003
-6.34276072382621E-0004
-1.19663999749339E-0003
-2.35455099698907E-0003
-3.47517749829053E-0003
-4.90907274954101E-0003
-6.31714719873585E-0003
-6.56959910028304E-0003
-5.42823858943651E-0003
-5.06257748320433E-0003
-3.38434127668860E-0003
-3.81562064684722E-0003
-3.68672263500992E-0003
-4.26619961477140E-0003
-6.56928203708387E-0003
-7.57785255129286E-0003
-9.51952217869820E-0003
-1.01926881142792E-0002
-9.59532994722745E-0003
-8.74076905963834E-0003
-8.81678855625212E-0003
-8.20078967032279E-0003
-9.20941506290050E-0003
-9.97341262369102E-0003
-1.14082875337478E-0002
-1.34497460333785E-0002
-1.39514769345800E-0002
-1.33340903549135E-0002
-1.25109725065615E-0002
-1.11037999876713E-0002
-8.69733386503676E-0003
-7.33896630042995E-0003
-5.25813505395335E-0003
-3.84353853100542E-0003
-2.90433256639449E-0003
-1.76354243087298E-0003
 1.01517023176254E-0003
 3.62161023363542E-0003
 8.70781545247225E-0003
 1.39190857893785E-0002
 1.87152069708551E-0002
 2.34483966007198E-0002
 2.70107230196532E-0002
 3.05992050828103E-0002
 3.22442268916737E-0002
 3.46228513016531E-0002
 3.62605902089558E-0002
 3.77749182105893E-0002
 3.95200736609454E-0002
 4.19095116208423E-0002
 4.24118981812551E-0002
 4.12296194693311E-0002
 3.91803720960739E-0002
 3.63320948940752E-0002
 3.18521061695177E-0002
 2.66899999071773E-0002
 2.18014855017755E-0002
 1.71657014140187E-0002
 1.38757925793347E-0002
 1.08229966384620E-0002
 7.42653536845550E-0003
 4.90731171414021E-0003
 1.12354529082413E-0003
-2.72049527936753E-0003
-6.85867372825932E-0003
-1.09160256408349E-0002
-1.36173499401938E-0002
-1.55654733450020E-0002
-1.61463870166829E-0002
-1.62616675288697E-0002
-1.52322050193888E-0002
-1.48323277709606E-0002
-1.51045290197576E-0002
-1.49003870529183E-0002
-1.63693173410421E-0002
-1.62025693256293E-0002
-1.61359273669519E-0002
-1.58993251867190E-0002
-1.34869669734059E-0002
-1.17569654637899E-0002
-9.37991104191352E-0003
-8.13576294652657E-0003
-7.73027837631061E-0003
-7.28247727622709E-0003
-7.74168517763156E-0003
-8.26505826284193E-0003
-8.37209986523807E-0003
-8.60678339485138E-0003
-7.17652137666403E-0003
-5.97017235083330E-0003
-4.01155478519375E-0003
-3.88537117123291E-0003
-3.75256938101264E-0003
-4.12492957988611E-0003
-4.69409942741267E-0003
-6.15564936892289E-0003
-7.02536523091452E-0003
-6.24548123919062E-0003
-6.20533051165560E-0003
-4.45589406249874E-0003
-3.06861072793283E-0003
-2.18362735497116E-0003
-2.10107077846121E-0003
-3.24442624639711E-0003
-3.47057962124322E-0003
-5.47792410361959E-0003
-5.93432786506734E-0003
-5.09725354851645E-0003
-4.68137976763158E-0003
-3.19673696005970E-0003
-1.87076989498299E-0003
-7.41375749810671E-0004
-6.16696349339422E-0004
-1.60581666571506E-0003
-1.89058344484803E-0003
-3.06978814599847E-0003
-3.60453346169579E-0003
-3.71124208985319E-0003
-2.52379927902589E-0003
-1.05510194847691E-0003
 5.09466311103324E-0004
 1.08999416326110E-0003
 1.24739270961594E-0003
 8.29105521243913E-0004
 8.27581314963572E-0005
-7.43590544885392E-0004
-1.03919220146165E-0003
-7.58259286192631E-0004
 3.80914780348707E-0004
 1.93066833843147E-0003
 2.80756467711491E-0003
 4.03449713602168E-0003
 4.74080928027930E-0003
 4.35206541785936E-0003
 3.02507200221161E-0003
 2.36035455447751E-0003
 1.35239114043725E-0003
 2.03612103008237E-0003
 2.82999902813313E-0003
 5.13850804897271E-0003
 6.06941272010808E-0003
 7.71749941607804E-0003
 7.48956313452776E-0003
 7.50200028809075E-0003
 6.47241452243264E-0003
 5.30241058001504E-0003
 4.81641672135402E-0003
 6.03618926692137E-0003
 6.58913197794443E-0003
 7.76359155399623E-0003
 9.62234310894590E-0003
 1.04291039700006E-0002
 1.09954884807849E-0002
 1.02289617825550E-0002
 9.47888173915673E-0003
 8.40465185264772E-0003
 8.70725236689777E-0003
 8.69687409582952E-0003
 9.31483010460621E-0003
 1.14965561105344E-0002
 1.25223489439930E-0002
 1.36237963375032E-0002
 1.36985728654277E-0002
 1.35389082353532E-0002
 1.22867457451279E-0002
 1.08801945019713E-0002
 1.03401338500677E-0002
 1.09310882842004E-0002
 1.17387041713634E-0002
 1.22573575981466E-0002
 1.35978224160437E-0002
 1.45477878825750E-0002
 1.49042688343098E-0002
 1.40259926198640E-0002
 1.25873581956330E-0002
 1.14148963733262E-0002
 1.07039040730266E-0002
 1.02293803358847E-0002
 1.16733302374652E-0002
 1.19590775482016E-0002
 1.36802602871253E-0002
 1.42069613656775E-0002
 1.34410186797690E-0002
 1.29570434154467E-0002
 1.15701520841832E-0002
 1.00943292706163E-0002
 8.93372134400741E-0003
 8.49256330590512E-0003
 9.62586444002038E-0003
 1.07327286719392E-0002
 1.11908465304942E-0002
 1.20423620798186E-0002
 1.09091024898682E-0002
 1.07393530123851E-0002
 8.93514034530083E-0003
 7.06216616787859E-0003
 6.46800256572808E-0003
 5.67174633408165E-0003
 6.43941938772188E-0003
 7.13123648622602E-0003
 7.55769116700874E-0003
 8.03267076018574E-0003
 7.92131318586431E-0003
 7.03185097872736E-0003
 4.87790643188448E-0003
 4.11182171211713E-0003
 2.50153354486584E-0003
 2.32211638824274E-0003
 2.98310351807785E-0003
 3.34775574381827E-0003
 4.01115875000839E-0003
 4.77344799802878E-0003
 4.33850174382942E-0003
 3.21142444594586E-0003
 1.74635615805227E-0003
 2.93987825632085E-0004
-8.17540021197276E-0004
-1.20545423469308E-0003
-5.49199574998576E-0004
-3.53852123128740E-0004
 6.05477722430709E-0004
 1.09895069702439E-0003
 1.12403615782227E-0003
-4.15543405662554E-0004
-1.93097414325600E-0003
-2.72704593317869E-0003
-4.05905053349087E-0003
-3.77828050404427E-0003
-3.23075252886036E-0003
-2.27227559857748E-0003
-2.18255888075781E-0003
-1.75556438699493E-0003
-1.43140903636274E-0003
-2.61534456092993E-0003
-4.02965820942856E-0003
-5.15163203828126E-0003
-6.09459680580631E-0003
-6.51337203565839E-0003
-5.99849767611847E-0003
-5.04784930819522E-0003
-3.65850170939947E-0003
-2.78095829232974E-0003
-2.64592558556308E-0003
-3.43509656116160E-0003
-4.77927507823323E-0003
-6.36348832024052E-0003
-7.32398120713292E-0003
-7.63423669825721E-0003
-6.90650168631867E-0003
-5.92184432814581E-0003
-4.12408960765668E-0003
-3.63372311730962E-0003
-4.11961708539201E-0003
-4.42747927638668E-0003
-5.53085367144989E-0003
-7.22336551680338E-0003
-7.56514579282575E-0003
-8.08484689844559E-0003
-7.00538116327509E-0003
-6.11623011174882E-0003
-4.58459418359526E-0003
-4.08514995659078E-0003
-4.39996671091849E-0003
-4.93253453445348E-0003
-6.80980324726307E-0003
-7.44533909885572E-0003
-8.41891862772619E-0003
-8.73745566839207E-0003
-7.32062657683258E-0003
-6.49927139524256E-0003
-5.09030214679980E-0003
-4.01175524028075E-0003
-4.64170199429275E-0003
-5.28984283274180E-0003
-6.40036369051682E-0003
-7.68412038480387E-0003
-8.66807684868716E-0003
-7.92898824486435E-0003
-7.06048169008524E-0003
-6.16711310578537E-0003
-5.35944785407560E-0003
-4.17944697658708E-0003
-4.05840972935045E-0003
-5.02054387728465E-0003
-6.22978434182582E-0003
-7.26219872455339E-0003
-7.95858193535836E-0003
-8.68417509711651E-0003
-7.47719472291159E-0003
-6.20647950332058E-0003
-4.66625896812394E-0003
-3.90867136110917E-0003
-4.28082152234085E-0003
-4.74121324300087E-0003
-6.55730418975134E-0003
-7.26372193460319E-0003
-8.10455588072703E-0003
-8.54478556213779E-0003
-7.69347033990689E-0003
-6.41517749006239E-0003
-4.59628565892843E-0003
-3.85512746157591E-0003
-4.52224777440670E-0003
-4.54222262062357E-0003
-5.86300785597128E-0003
-7.20322229793397E-0003
-7.79026403661179E-0003
-8.10330264395867E-0003
-7.71649599781919E-0003
-6.32167765747381E-0003
-5.10633704868774E-0003
-4.29223476313182E-0003
-4.15314359594731E-0003
-4.98567393228710E-0003
-5.83367730747693E-0003
-7.35512031456371E-0003
-7.67973683819616E-0003
-7.35761003513333E-0003
-6.76988879588526E-0003
-6.18672721452688E-0003
-4.81029477634081E-0003
-3.58238932645821E-0003
-3.76640473477314E-0003
-4.33548082548298E-0003
-6.26448668349572E-0003
-7.13957844945956E-0003
-7.75319677230163E-0003
-7.35900378927801E-0003
-7.21251911657481E-0003
-5.76937962017667E-0003
-4.38356439003759E-0003
-3.65914804761713E-0003
-3.59330213653051E-0003
-4.47127383702751E-0003
-5.70081397835749E-0003
-6.67546226985742E-0003
-7.84570146505921E-0003
-7.89227555586869E-0003
-7.04672011510846E-0003
-5.62903523340978E-0003
-4.14268335483373E-0003
-3.60874204802102E-0003
-4.11357849630729E-0003
-4.69057261597224E-0003
-5.40516161896022E-0003
-6.55568065232861E-0003
-7.35465728584176E-0003
-7.26464773039713E-0003
-7.19043933378634E-0003
-5.17049444087376E-0003
-4.71785362811955E-0003
-3.26906937705419E-0003
-3.23205460927095E-0003
-4.50002368786744E-0003
-5.85436468063112E-0003
-7.03830991218739E-0003
-7.72083705155476E-0003
-7.33782349319674E-0003
-6.77226545540953E-0003
-5.79293377020911E-0003
-4.16698131052727E-0003
-3.64562029931654E-0003
-3.58680232379049E-0003
-4.29888316386545E-0003
-4.86994625176252E-0003
-6.26288939948923E-0003
-7.33220758953521E-0003
-7.15855983295643E-0003
-6.84107025101981E-0003
-5.22149151845501E-0003
-4.54983893611068E-0003
-3.36264249050897E-0003
-3.70570779137851E-0003
-3.66422083934869E-0003
-5.55444716069939E-0003
-6.48157605044405E-0003
-7.42468574732275E-0003
-7.18419519211519E-0003
-6.09845326824096E-0003
-5.18865988386804E-0003
-4.42487077695674E-0003
-3.58901397714980E-0003
-2.83602420638555E-0003
-3.48856963344133E-0003
-4.91563134366627E-0003
-5.84359789625820E-0003
-7.30172145708615E-0003
-6.84321698914087E-0003
-5.98604706066411E-0003
-5.25860744210265E-0003
-3.86848193777352E-0003
-3.57383971110539E-0003
-2.75962051000351E-0003
-3.67324032741811E-0003
-5.33668095019363E-0003
-5.66820371531795E-0003
-7.19623617753588E-0003
-7.19928672606888E-0003
-5.62410995758729E-0003
-4.43480167308378E-0003
-3.88112287964123E-0003
-3.28034317508238E-0003
-2.70864695180356E-0003
-3.12788752807256E-0003
-4.32762794050998E-0003
-5.57014752512698E-0003
-6.28846942808382E-0003
-6.48535865754431E-0003
-6.13879873247414E-0003
-4.44711441457492E-0003
-3.37479536864252E-0003
-2.30865082143103E-0003
-2.05484948840156E-0003
-3.66424642002674E-0003
-4.21933060556139E-0003
-4.96401038330577E-0003
-6.22679382549614E-0003
-6.45188628556248E-0003
-4.79688851468983E-0003
-3.99770209130695E-0003
-2.80670583551458E-0003
-1.57793999387301E-0003
-1.74569866862463E-0003
-2.73972584428671E-0003
-3.13213008608494E-0003
-4.62020392639457E-0003
-4.98086278193559E-0003
-4.58857685507129E-0003
-3.60004869794916E-0003
-2.01815253298233E-0003
-9.46058783206718E-0004
 1.43857428636300E-0004
-7.19961905457875E-0006
-1.52842788575942E-0004
-1.65489689413019E-0003
-1.80105365001620E-0003
-2.44569391729470E-0003
-2.52077531277286E-0003
-1.49047386695320E-0003
 2.09161258459352E-0004
 1.40808917091195E-0003
 2.74639648675180E-0003
 3.58732082948328E-0003
 2.78569217950991E-0003
 1.58709635392607E-0003
 1.01504615284667E-0003
 4.64678062553196E-0004
 1.41663989465880E-0003
 1.86748622234196E-0003
 3.62128881355174E-0003
 5.21453088981479E-0003
 6.54902389670247E-0003
 7.01788682512335E-0003
 6.68390863866863E-0003
 5.45432179603609E-0003
 4.47632986383516E-0003
 4.42438328631133E-0003
 4.44118839771143E-0003
 5.00005380643148E-0003
 6.33815630510223E-0003
 7.49935836828318E-0003
 9.10507037112270E-0003
 9.41165788281388E-0003
 7.85445401769309E-0003
 7.09328958651278E-0003
 6.47424517776888E-0003
 5.71011202365251E-0003
 5.59744754241040E-0003
 6.30952034215562E-0003
 7.23411652014675E-0003
 7.79647391460313E-0003
 8.41744643753320E-0003
 8.44062968925689E-0003
 7.19059783112056E-0003
 5.91730011276690E-0003
 4.89043510481352E-0003
 3.43404475544411E-0003
 3.86892618953023E-0003
 3.70540196436956E-0003
 4.34508618121022E-0003
 5.54742701454885E-0003
 5.72463358090169E-0003
 5.64593379769353E-0003
 4.34782717873587E-0003
 2.67013778551663E-0003
 1.46640673800429E-0003
 5.07160682034258E-0004
-2.91436675309033E-0004
-2.92751859561470E-0005
 6.78915089886736E-0004
 1.52619417011812E-0003
 1.88316847049708E-0003
 1.84851531911709E-0003
 1.25135735808873E-0003
-4.79283481396265E-0005
-2.10258742022910E-0003
-3.14762413524301E-0003
-3.70329082694592E-0003
-3.27296988104830E-0003
-1.40032686170669E-0003
-5.25650062999892E-0004
-9.46864642057068E-0004
-6.02873971805952E-0004
-1.64118371162707E-0003
-3.47123019091294E-0003
-4.50164671830233E-0003
-4.97994748577304E-0003
-5.50286736251888E-0003
-4.99498971846695E-0003
-3.90264403310790E-0003
-2.89890224394712E-0003
-2.41137857332523E-0003
-3.35445513872904E-0003
-4.51184712216140E-0003
-5.51103683511848E-0003
-6.88985600155155E-0003
-8.69161055355876E-0003
-8.78542060626682E-0003
-8.54662285664661E-0003
-8.30653743612364E-0003
-7.56150792241002E-0003
-7.63707221833492E-0003
-7.67972852843351E-0003
-9.72786410884170E-0003
-1.05894898876660E-0002
-1.22468860837808E-0002
-1.27693382862183E-0002
-1.28815755853215E-0002
-1.17107551606894E-0002
-1.02257896294663E-0002
-8.20202672625211E-0003
-6.22432547807811E-0003
-4.69462626348453E-0003
-3.10248270061085E-0003
-2.01553794943678E-0003
-1.13281087145324E-0003
 1.62178345505185E-0003
 4.42285461052795E-0003
 9.71432336419474E-0003
 1.41276986710637E-0002
 1.96252838576833E-0002
 2.41167455302003E-0002
 2.84432014021082E-0002
 3.10434383503607E-0002
 3.30767857272442E-0002
 3.56530577055620E-0002
 3.73391474409327E-0002
 3.90350585464299E-0002
 4.03232874098472E-0002
 4.20241433836470E-0002
 4.29058840007194E-0002
 4.26829518780431E-0002
 4.02413218400890E-0002
 3.67178019726543E-0002
 3.21989471428706E-0002
 2.77924849817336E-0002
 2.24920466905900E-0002
 1.78901470103491E-0002
 1.42031478835755E-0002
 1.19075493893649E-0002
 8.63227188327231E-0003
 5.25114251088358E-0003
 1.84665780861178E-0003
-2.76975003205056E-0003
-6.92973269821071E-0003
-1.02277951818476E-0002
-1.27012322125831E-0002
-1.51535940167074E-0002
-1.57282122847423E-0002
-1.46944818052617E-0002
-1.41804622512123E-0002
-1.41492224948067E-0002
-1.39139238995398E-0002
-1.41268118975003E-0002
-1.52397708333516E-0002
-1.52645608717059E-0002
-1.51428523571648E-0002
-1.44631713803361E-0002
-1.27209968124238E-0002
-1.06348795955634E-0002
-8.51042569829227E-0003
-6.77929566802239E-0003
-6.85137077392352E-0003
-6.90687954406421E-0003
-7.46663217199302E-0003
-7.68491747614288E-0003
-7.82794918661233E-0003
-7.29098936666551E-0003
-6.68907774308415E-0003
-4.51762912915777E-0003
-3.73784526351594E-0003
-2.45685510025657E-0003
-2.18778994913095E-0003
-2.71610336708127E-0003
-3.72809156575908E-0003
-5.33647629861003E-0003
-5.92484324636955E-0003
-5.49714304820113E-0003
-4.42737717199444E-0003
-3.88280036856074E-0003
-2.04338065993212E-0003
-1.54021390344344E-0003
-9.32187957791449E-0004
-2.26917361597632E-0003
-2.76538715727189E-0003
-3.84538788664562E-0003
-4.56794515869791E-0003
-4.25788139650121E-0003
-3.09344399530329E-0003
-2.34885726006421E-0003
-3.66785646956551E-0004
 4.55022927704315E-0004
 2.79108746062765E-0005
-3.78596499490123E-0004
-1.20984958551294E-0003
-2.47743381089463E-0003
-2.74530096814598E-0003
-2.75101609274428E-0003
-1.33116084976083E-0003
 1.90461576725409E-0004
 1.52431482366797E-0003
 2.50911591601355E-0003
 2.43337834452086E-0003
 2.14236000455394E-0003
 1.10926941344955E-0003
 8.01366898738747E-0005
-5.66529471602340E-0005
-2.40723443348770E-0004
 1.45209346540333E-0003
 2.82153988749940E-0003
 4.13417415640933E-0003
 5.41524533399362E-0003
 5.50527758069652E-0003
 5.07024758664291E-0003
 3.82907023055929E-0003
 3.68054522092082E-0003
 2.98668135506410E-0003
 3.18837002708779E-0003
 4.51281848750846E-0003
 5.99073050138600E-0003
 7.21076755523943E-0003
 8.60866284572815E-0003
 8.91575761709159E-0003
 8.65773969735512E-0003
 7.96897022549290E-0003
 6.87384299828524E-0003
 6.94323899454368E-0003
 7.28121486934414E-0003
 8.11435928398472E-0003
 9.85285908686475E-0003
 1.07357678933783E-0002
 1.24310838421710E-0002
 1.18237663717910E-0002
 1.16352108072629E-0002
 1.14579489993402E-0002
 9.72236924909999E-0003
 9.19744964390442E-0003
 9.78623898494587E-0003
 1.05961836524560E-0002
 1.20901023642139E-0002
 1.41062886120000E-0002
 1.44592212657909E-0002
 1.48630692765815E-0002
 1.43902272208808E-0002
 1.30094272108132E-0002
 1.21100443160486E-0002
 1.14933966929952E-0002
 1.16342474439301E-0002
 1.26471582535885E-0002
 1.42471927489399E-0002
 1.49666167939466E-0002
 1.59783508154407E-0002
 1.58319205874132E-0002
 1.49678831578474E-0002
 1.40036606011303E-0002
 1.28377719864724E-0002
 1.22473184228990E-0002
 1.22131339691007E-0002
 1.28679687200585E-0002
 1.31842207713931E-0002
 1.44151454800645E-0002
 1.54876405805347E-0002
 1.53187583260838E-0002
 1.44023824782534E-0002
 1.28034959485206E-0002
 1.10404325154589E-0002
 1.02516700708048E-0002
 1.02635285776550E-0002
 1.02310784605162E-0002
 1.11894106033840E-0002
 1.23120561904486E-0002
 1.33873914723166E-0002
 1.30410486948706E-0002
 1.17910588044196E-0002
 1.05792781455381E-0002
 8.81356210088400E-0003
 7.20477822708935E-0003
 7.03863504991975E-0003
 7.60238462111351E-0003
 7.99074941568451E-0003
 8.76604631275566E-0003
 9.58520278687547E-0003
 9.38567427507193E-0003
 7.81036448775277E-0003
 6.84916917163629E-0003
 5.23788525789475E-0003
 3.60966039913159E-0003
 3.49280884084284E-0003
 3.63648818120732E-0003
 5.15670739820437E-0003
 5.62292543468552E-0003
 5.94780575557019E-0003
 6.03867483036185E-0003
 4.80941880257795E-0003
 2.55328887687108E-0003
 1.48004502603923E-0003
 4.68238923047444E-0004
 1.15529107503263E-0004
 6.85458150651072E-0005
 1.39832777655388E-0003
 2.37653746934004E-0003
 3.02569374607404E-0003
 2.63502489732760E-0003
 1.40438947284164E-0003
 2.74882509942667E-0005
-1.96750120700520E-0003
-2.19086980481344E-0003
-3.18058787666687E-0003
-1.83697154107090E-0003
-1.20438010230187E-0003
-6.53040328489837E-0004
 5.19167279894780E-0004
-4.66619392804613E-0004
-6.17642142429801E-0004
-2.26995925860057E-0003
-3.30131192786321E-0003
-5.04784650100337E-0003
-5.19356048452614E-0003
-4.11288415264354E-0003
-2.72564708136446E-0003
-2.21370615471281E-0003
-1.63903627803214E-0003
-1.79000654497240E-0003
-2.95064855797734E-0003
-3.39608864924982E-0003
-5.50861326758435E-0003
-6.35149845061886E-0003
-6.04955699084308E-0003
-5.11505645755023E-0003
-4.35852623005522E-0003
-3.08038688542888E-0003
-2.54304966628877E-0003
-2.98225375228959E-0003
-3.17673544399752E-0003
-4.32115057340971E-0003
-5.40702976505356E-0003
-6.50826178111563E-0003
-6.15594264852249E-0003
-6.31597669701426E-0003
-4.45917501548276E-0003
-3.55373394594154E-0003
-3.06355023627236E-0003
-2.70049756704721E-0003
-3.74810603163036E-0003
-4.45111574726284E-0003
-6.21249604773365E-0003
-6.62379713253657E-0003
-6.38709258446557E-0003
-5.64181496034888E-0003
-5.34987284478000E-0003
-4.20745890226997E-0003
-3.46120263128930E-0003
-3.35559044813140E-0003
-3.46214674303694E-0003
-5.24541990166165E-0003
-6.38679131780887E-0003
-7.17191964662271E-0003
-7.31386807876463E-0003
-5.86447617965915E-0003
-5.41522387666290E-0003
-4.05310559023241E-0003
-2.72377301115990E-0003
-2.54720563990806E-0003
-3.65464766587652E-0003
-4.62589235141975E-0003
-6.33218029991885E-0003
-7.23207811867875E-0003
-6.80171905974623E-0003
-6.30644869035819E-0003
-4.92659320885221E-0003
-3.95553106200413E-0003
-2.96220216046875E-0003
-2.54550527673572E-0003
-4.07434204089989E-0003
-4.68780038217497E-0003
-5.68936470701639E-0003
-6.78343637870409E-0003
-6.62919384838683E-0003
-5.83238682059362E-0003
-4.68210122254392E-0003
-3.45417574816921E-0003
-2.86407230668027E-0003
-2.53838376598699E-0003
-3.26336364603304E-0003
-4.56724245377662E-0003
-5.74194825898209E-0003
-6.30360555056755E-0003
-6.59841673569858E-0003
-6.21520822560479E-0003
-4.12917818252384E-0003
-3.05724887424490E-0003
-2.74389438350256E-0003
-3.01670150790723E-0003
-3.45508352081497E-0003
-4.14807091563160E-0003
-5.44784779657631E-0003
-6.85934934113887E-0003
-6.14173398597140E-0003
-5.44937122794542E-0003
-4.87023935354822E-0003
-3.01673473693816E-0003
-2.29981942314845E-0003
-2.48135717831637E-0003
-3.10258190829837E-0003
-3.92005622295076E-0003
-5.94701958302696E-0003
-5.76690782455451E-0003
-6.17875206057698E-0003
-5.67938209271435E-0003
-4.31581234932894E-0003
-3.38554300868286E-0003
-2.45592061390841E-0003
-2.13130881332834E-0003
-3.49957788578687E-0003
-3.87740711977486E-0003
-4.99454344081910E-0003
-6.50283036959591E-0003
-6.50393924864175E-0003
-5.46716006005485E-0003
-3.87935330068039E-0003
-2.53122532169894E-0003
-1.95728268211266E-0003
-2.25958486304267E-0003
-3.10521006938885E-0003
-4.06677102210344E-0003
-5.48440080790574E-0003
-6.37171873070637E-0003
-5.46974991168631E-0003
-5.00317750582208E-0003
-4.06019922838505E-0003
-2.71631423356844E-0003
-2.10177657098198E-0003
-2.06255044824425E-0003
-2.34232393292483E-0003
-4.33844003073218E-0003
-5.00433787517393E-0003
-6.27468981517304E-0003
-5.79964985892485E-0003
-5.02511339881067E-0003
-4.30442769641418E-0003
-2.74053059786448E-0003
-1.64057334617581E-0003
-1.58977342416221E-0003
-2.58317008875077E-0003
-3.45653417244156E-0003
-5.29505058257883E-0003
-5.54640026349439E-0003
-5.47842447433068E-0003
-4.79492078187918E-0003
-3.51732012230145E-0003
-2.63808427863157E-0003
-1.93875152706155E-0003
-1.91654832062920E-0003
-2.85816185018628E-0003
-3.87184845801786E-0003
-5.25767583777355E-0003
-5.70623580620130E-0003
-5.07362310766404E-0003
-4.52960519825796E-0003
-3.33017260801144E-0003
-2.57032295888055E-0003
-1.22413755389759E-0003
-1.30703672657569E-0003
-2.25521290190979E-0003
-3.62324941089702E-0003
-4.96795083425164E-0003
-5.04517337991750E-0003
-5.22627185946828E-0003
-4.60800623848535E-0003
-3.86575000725447E-0003
-2.26942919364445E-0003
-1.83869215691545E-0003
-1.57721496841838E-0003
-2.19529691133579E-0003
-3.93784453789289E-0003
-4.69278452991587E-0003
-5.67457870049091E-0003
-5.59294434341092E-0003
-4.61836858228310E-0003
-3.48454981057869E-0003
-2.10646172178225E-0003
-1.02593589844810E-0003
-9.96959350567730E-0004
-2.45786188203625E-0003
-3.58040587147601E-0003
-4.34945185748591E-0003
-4.93135138295697E-0003
-4.91012327721266E-0003
-4.30557926873535E-0003
-3.01548059924163E-0003
-2.01547640724621E-0003
-6.30558565453778E-0004
-1.33223531264706E-0003
-2.18269068818714E-0003
-2.80671538926316E-0003
-3.90051001105079E-0003
-4.32046239357781E-0003
-4.29476904135742E-0003
-3.68644791432717E-0003
-1.99829379172478E-0003
-1.57868717095257E-0003
-3.81854937045327E-0004
-6.41552779364438E-0006
-8.33190202341380E-0004
-1.39945176214108E-0003
-3.08970311250519E-0003
-3.48635736785046E-0003
-3.15110225574340E-0003
-2.53787300727393E-0003
-7.53932371201675E-0004
 4.21981074864241E-0004
 1.05902395876850E-0003
 1.64042206908634E-0003
 1.48198402294371E-0003
 3.03062190585611E-0004
-4.20300136420724E-0004
-1.49706322238104E-0003
-3.10853711607674E-0004
-4.05526746132114E-0005
 1.70996617065927E-0003
 3.39754252807479E-0003
 4.31418304497574E-0003
 4.60781090754593E-0003
 4.36961111358696E-0003
 4.02908075498330E-0003
 2.72747011489851E-0003
 2.37700881275465E-0003
 2.37333909006482E-0003
 3.37313166750395E-0003
 5.09425921980119E-0003
 6.64581053048163E-0003
 7.49813017950872E-0003
 7.85202963795314E-0003
 7.82139449972036E-0003
 6.56961171338608E-0003
 6.21551417955936E-0003
 5.18348363089739E-0003
 6.01230613342326E-0003
 6.32530560293691E-0003
 7.64531881391648E-0003
 9.55992557879168E-0003
 1.01737103120018E-0002
 1.09193457379414E-0002
 9.60338575200701E-0003
 8.62769030911370E-0003
 7.66561212874064E-0003
 7.08943536697403E-0003
 6.79634362682370E-0003
 6.91604448931664E-0003
 8.07255938668943E-0003
 9.08000541127136E-0003
 1.00296458711518E-0002
 9.68468920639971E-0003
 8.99310330776144E-0003
 7.88595396135075E-0003
 6.54676210592402E-0003
 4.84738019995720E-0003
 4.92865151069660E-0003
 5.74359750704301E-0003
 6.30716809430585E-0003
 6.88219694715101E-0003
 7.76885333412122E-0003
 6.96882944277249E-0003
 6.33176394388982E-0003
 4.45476597396577E-0003
 2.62324873944925E-0003
 1.93183313885579E-0003
 1.42832350927019E-0003
 1.66438024918526E-0003
 2.43726032225617E-0003
 3.20863799625635E-0003
 3.42308686321156E-0003
 3.14110004326559E-0003
 2.14827897082335E-0003
 7.61894112673555E-0004
-7.26835652947478E-0004
-2.09310438759257E-0003
-1.68317445512215E-0003
-1.81828364054530E-0003
-8.82900457001013E-0004
 1.58542587860612E-0004
 9.74252221726163E-0004
 3.27749557250890E-0004
-3.70023029193817E-0004
-2.06713334657059E-0003
-3.33223008836412E-0003
-3.60969399894220E-0003
-3.77704054127316E-0003
-3.20749490214516E-0003
-2.62678957200481E-0003
-1.34848086095007E-0003
-1.53245112575852E-0003
-1.96615419373610E-0003
-2.66981866227509E-0003
-3.87176792727162E-0003
-5.51790884578727E-0003
-7.27377124273969E-0003
-7.84133550327709E-0003
-7.43144337155744E-0003
-7.22145836567605E-0003
-6.84303141358223E-0003
-6.63618891483232E-0003
-6.57212994429065E-0003
-7.88653770008353E-0003
-9.30536042676489E-0003
-1.08703526105905E-0002
-1.13596092537941E-0002
-1.14115965426655E-0002
-1.01331069326292E-0002
-9.25847804468904E-0003
-6.78892539862300E-0003
-4.74486041687815E-0003
-2.79955244073998E-0003
-2.07953446638468E-0003
-8.01518999427501E-0004
 4.56766461370481E-0004
 2.64855447613809E-0003
 5.87514731353700E-0003
 1.08562020388389E-0002
 1.55007737386691E-0002
 2.10907200328619E-0002
 2.59800975505764E-0002
 2.94025672858152E-0002
 3.23000987298932E-0002
 3.44877657525841E-0002
 3.62407627311791E-0002
 3.83236723196582E-0002
 4.01663883951914E-0002
 4.21455729222182E-0002
 4.39634348139656E-0002
 4.42905881935564E-0002
 4.35050529619146E-0002
 4.10071624298975E-0002
 3.76753778532695E-0002
 3.30913240459102E-0002
 2.84595992658481E-0002
 2.38032927267635E-0002
 1.97752340297859E-0002
 1.63959838260136E-0002
 1.23636581910246E-0002
 9.85587015048729E-0003
 6.88047405963606E-0003
 3.08042222109698E-0003
-7.91475328216433E-0004
-5.22698555006245E-0003
-8.76871189004224E-0003
-1.19945513173660E-0002
-1.37241146813518E-0002
-1.43087834788546E-0002
-1.35094345499164E-0002
-1.32302024857291E-0002
-1.32203536142442E-0002
-1.28156504582657E-0002
-1.30519132056451E-0002
-1.37142443301796E-0002
-1.38697159460680E-0002
-1.42451642158656E-0002
-1.37104742185629E-0002
-1.20080688069915E-0002
-9.60446357473436E-0003
-7.67381100696976E-0003
-6.44662007231245E-0003
-5.67009287503494E-0003
-5.23895530140101E-0003
-5.94846978470661E-0003
-6.64751311948189E-0003
-6.74937233475954E-0003
-6.06784261050915E-0003
-5.28896189515987E-0003
-3.96729882694307E-0003
-1.94313737698500E-0003
-9.48082723236734E-0004
-1.32547212216584E-0003
-1.36341252032594E-0003
-3.08208487453415E-0003
-3.67922316474956E-0003
-4.60391622103657E-0003
-4.20234002453979E-0003
-3.69567023946473E-0003
-2.47976953818400E-0003
-1.40382975659023E-0003
 1.11513644055650E-0004
 2.80072609734436E-0004
-7.95035008426101E-0004
-1.67813366438588E-0003
-2.93208001043354E-0003
-3.30841200273020E-0003
-2.91470389066874E-0003
-2.00000578567765E-0003
-7.90272986758634E-0004
 5.62088525510240E-0004
 1.04269095503186E-0003
 1.07751653977471E-0003
 6.85986370536798E-0004
-6.78726684183942E-0006
-1.36765711292458E-0003
-1.33731448889956E-0003
-1.35153636520291E-0003
-8.73035014320994E-0004
 6.55879206424125E-0004
 1.85136391555648E-0003
 2.75925581511706E-0003
 3.03441615953462E-0003
 2.69508908717980E-0003
 2.22315198903838E-0003
 1.31416818209845E-0003
 1.07263356602107E-0003
 6.69201583853485E-0004
 2.16554791287397E-0003
 3.16705461833459E-0003
 5.49649481784979E-0003
 6.28776704037178E-0003
 6.00002106214261E-0003
 5.95675360408720E-0003
 4.92394000971583E-0003
 4.52048441868060E-0003
 3.57042887543607E-0003
 4.31988702238137E-0003
 5.43495797322409E-0003
 6.89220847714794E-0003
 8.20413384344051E-0003
 9.58573145623624E-0003
 9.40263942976571E-0003
 9.72941017111166E-0003
 8.76912942762271E-0003
 7.69932317252789E-0003
 7.84157951044791E-0003
 7.66622251556108E-0003
 8.73233746872623E-0003
 1.08058925116891E-0002
 1.23088392811137E-0002
 1.25311243730296E-0002
 1.34422418479372E-0002
 1.32477223971542E-0002
 1.22055865684322E-0002
 1.09852260598757E-0002
 1.05459360900204E-0002
 1.09063524334726E-0002
 1.15093635140833E-0002
 1.29700347407879E-0002
 1.47005760182175E-0002
 1.56359636591819E-0002
 1.52849313164340E-0002
 1.53405851093801E-0002
 1.45521556327520E-0002
 1.27837148088959E-0002
 1.30085878562595E-0002
 1.22416877824940E-0002
 1.31363993784037E-0002
 1.44797703020266E-0002
 1.59908296824133E-0002
 1.65980304281077E-0002
 1.71746421119622E-0002
 1.56978483380942E-0002
 1.49952423824196E-0002
 1.33388920391859E-0002
 1.24246062440259E-0002
 1.22690798116288E-0002
 1.33334753489631E-0002
 1.46652977901215E-0002
 1.54960586969985E-0002
 1.58450475128423E-0002
 1.60343290780214E-0002
 1.49856209292209E-0002
 1.33544296773838E-0002
 1.20559823437061E-0002
 1.13720973873807E-0002
 1.13276700096806E-0002
 1.19175094609390E-0002
 1.27972145607842E-0002
 1.32894258371230E-0002
 1.38484152212566E-0002
 1.34685388087100E-0002
 1.28951746617330E-0002
 1.10630546813944E-0002
 9.31261255617589E-0003
 8.29611062924736E-0003
 7.58624828804684E-0003
 8.74281718072631E-0003
 9.09866484898887E-0003
 1.02213695740951E-0002
 1.00548468315459E-0002
 1.02123976624696E-0002
 8.60818244368919E-0003
 7.48602413398999E-0003
 5.52707577644999E-0003
 4.40736649385151E-0003
 4.13762308981757E-0003
 4.65659264447809E-0003
 5.10336565846957E-0003
 6.47597990991800E-0003
 7.08334980869222E-0003
 6.51834105171022E-0003
 4.83145909382129E-0003
 3.48116822968996E-0003
 2.60137721212176E-0003
 6.19298928164056E-0004
 7.02985223479042E-0004
 1.42396970874142E-0003
 1.52999288119839E-0003
 3.37465117579988E-0003
 3.06975953014691E-0003
 2.68665881572366E-0003
 1.70143193960166E-0003
 4.54709403689962E-0004
-7.74142254657638E-0004
-2.31926659077230E-0003
-2.04938418304507E-0003
-1.63849662241964E-0003
-4.11561155410918E-0004
-2.65146482268715E-0004
 9.41896811632256E-0004
 4.17054745932091E-0004
-7.71680317284653E-0004
-1.92922778743608E-0003
-2.81529331286199E-0003
-3.92663918198718E-0003
-4.31681004655256E-0003
-4.10280850485535E-0003
-2.70400805460176E-0003
-1.29589600543656E-0003
-1.20065278630336E-0003
-1.03044139520757E-0003
-2.11459369608373E-0003
-3.14889033415813E-0003
-4.40215365726674E-0003
-5.34916017303162E-0003
-5.37882920199137E-0003
-4.91948114766120E-0003
-4.15200983279101E-0003
-2.24165871479791E-0003
-2.15245605454617E-0003
-2.07823850528188E-0003
-2.65079094622707E-0003
-3.70531745419572E-0003
-5.62511593267449E-0003
-5.95054110935682E-0003
-5.89566598774818E-0003
-5.65701482035961E-0003
-4.24967280314451E-0003
-2.88157857245981E-0003
-2.61969843526647E-0003
-2.27554359572010E-0003
-3.36477969661363E-0003
-4.52506354966406E-0003
-5.09764198669223E-0003
-6.29642211382175E-0003
-5.90260841678222E-0003
-5.85051910268147E-0003
-4.88514597142486E-0003
-3.72387186880807E-0003
-2.56064700775907E-0003
-2.14590970070061E-0003
-3.24018472066766E-0003
-4.61172616023900E-0003
-5.56646219408718E-0003
-6.60537589375655E-0003
-6.79360437226262E-0003
-5.38311528795014E-0003
-4.47732071722157E-0003
-2.84183352600075E-0003
-2.22268541094623E-0003
-2.84069407117171E-0003
-3.13848481193922E-0003
-4.85120636330885E-0003
-5.43162538386772E-0003
-6.33218161441128E-0003
-6.74208753518033E-0003
-5.77315193090185E-0003
-4.05585174216164E-0003
-3.28599167254936E-0003
-2.11550491563531E-0003
-2.47506592310508E-0003
-2.78900031392140E-0003
-4.51874319529383E-0003
-5.11815030057988E-0003
-6.29915608025749E-0003
-5.84948595241552E-0003
-5.53453137799466E-0003
-4.33862094124307E-0003
-3.06147526196361E-0003
-2.08880834770689E-0003
-2.71518516781914E-0003
-2.96277706241444E-0003
-4.58218946804201E-0003
-5.00365350940840E-0003
-6.62945024787655E-0003
-6.52227070381420E-0003
-5.84441237118300E-0003
-4.20606817084276E-0003
-3.39983014939478E-0003
-2.36450047257270E-0003
-2.54170155765636E-0003
-2.60550005925652E-0003
-4.30306905069233E-0003
-5.51418316261903E-0003
-6.12861759730454E-0003
-6.37666713611593E-0003
-5.56556336104808E-0003
-3.84599604897646E-0003
-3.19842360649276E-0003
-1.95914039950796E-0003
-2.00428184797668E-0003
-3.19698962948586E-0003
-4.21861198090167E-0003
-5.09504959459581E-0003
-6.47920920196605E-0003
-5.86079933339392E-0003
-5.46915083338224E-0003
-4.22185237910476E-0003
-2.87211981798067E-0003
-2.09259941722786E-0003
-1.71025958959632E-0003
-3.21902440826260E-0003
-4.49349124627036E-0003
-5.00374226799485E-0003
-6.41952052013048E-0003
-6.32561088526961E-0003
-5.63744984644297E-0003
-3.53802365899725E-0003
-3.18813298614344E-0003
-2.23258279474084E-0003
-1.68655809358180E-0003
-2.90343141748592E-0003
-4.05311984424466E-0003
-5.10394103018848E-0003
-5.48125030337183E-0003
-5.65131803495392E-0003
-5.36037852473075E-0003
-3.59350893516656E-0003
-2.41872352018003E-0003
-1.78194039493284E-0003
-2.43538617738978E-0003
-2.60627064759777E-0003
-3.93309292505633E-0003
-5.00530971678899E-0003
-5.65136550951315E-0003
-5.37119559876368E-0003
-4.82670405263756E-0003
-3.59929195346357E-0003
-2.23471770890995E-0003
-1.57949190564542E-0003
-1.60441067135829E-0003
-2.98881536709016E-0003
-3.33453099129651E-0003
-5.09223075461870E-0003
-5.27562373203045E-0003
-5.98812415317339E-0003
-4.70105527025709E-0003
-4.03427985758569E-0003
-2.83893519058673E-0003
-1.83501776222640E-0003
-1.99994812984479E-0003
-2.77339835435943E-0003
-3.85112011755945E-0003
-4.89601200290880E-0003
-6.10209048413844E-0003
-6.10142387655302E-0003
-5.30039816759737E-0003
-3.23434917379463E-0003
-2.43876334493612E-0003
-2.12147734669955E-0003
-1.68574368990024E-0003
-2.91469175322360E-0003
-3.69896921890072E-0003
-5.09509958469768E-0003
-5.51701869529815E-0003
-5.73640405055216E-0003
-4.96375082759525E-0003
-3.81621667274921E-0003
-2.20068813291919E-0003
-1.27431410449290E-0003
-2.05426230199214E-0003
-2.76073426007231E-0003
-3.46286721452559E-0003
-4.85583764429712E-0003
-5.18333749293210E-0003
-5.07863967946097E-0003
-4.27953356719743E-0003
-3.41634856473829E-0003
-2.75031177336178E-0003
-1.68251272482713E-0003
-1.96568197595580E-0003
-1.85663531866536E-0003
-3.30590559112792E-0003
-4.43640747719236E-0003
-5.38827173406220E-0003
-5.34445495374534E-0003
-4.53216538482656E-0003
-3.76218465427018E-0003
-2.01795200211983E-0003
-1.18934993706691E-0003
-7.64539771720541E-0004
-1.66246963651504E-0003
-2.72174354649383E-0003
-3.67009225163675E-0003
-4.89637144706840E-0003
-4.97770157190342E-0003
-4.01714280874287E-0003
-2.50731305283631E-0003
-1.25626764987477E-0003
-8.81903322600274E-0004
-1.90164934135167E-0004
-1.35589131010790E-0003
-2.23586953974804E-0003
-3.37180550063371E-0003
-3.99278409241560E-0003
-3.50963584575768E-0003
-2.26342864968659E-0003
-8.16681013113775E-0004
 6.15128074606724E-0004
 8.02645868594070E-0004
 1.60001546428069E-0003
 6.82453605552000E-0004
 2.79619984132202E-0005
-5.98625137812154E-0004
-1.14709144520005E-0003
-1.44156980146971E-0003
 3.92081570772783E-0004
 9.80374005057348E-0004
 3.19592725905506E-0003
 3.91642296758246E-0003
 4.68953358214232E-0003
 3.64956280208588E-0003
 3.10096383650861E-0003
 2.04408133610168E-0003
 2.04568639890979E-0003
 2.25697759755725E-0003
 2.96415273078862E-0003
 4.47894770821160E-0003
 6.04840744179376E-0003
 7.36335765478140E-0003
 7.81801877025207E-0003
 7.13583804976328E-0003
 6.67809604729430E-0003
 5.99102075464353E-0003
 5.26310540911619E-0003
 5.17687457070829E-0003
 6.62775020535071E-0003
 7.95358796547747E-0003
 8.52720591513620E-0003
 1.01175997607326E-0002
 1.01080995799106E-0002
 8.88905122477449E-0003
 8.37130110878071E-0003
 6.91076834116590E-0003
 5.91824023340068E-0003
 6.29927291906412E-0003
 6.74222112022716E-0003
 8.43576513459740E-0003
 8.81193290166487E-0003
 9.71212528218497E-0003
 9.39065578097671E-0003
 8.14060483601889E-0003
 7.00403780262856E-0003
 5.33415834568493E-0003
 4.36215766894945E-0003
 4.76769905283446E-0003
 4.84603617837817E-0003
 5.25144145495481E-0003
 6.52166900550495E-0003
 6.91053068996879E-0003
 6.02063411249020E-0003
 5.55720803347126E-0003
 4.08787777874720E-0003
 2.40096691481863E-0003
 1.29479591338085E-0003
 9.68906547423131E-0004
 1.33734494955299E-0003
 2.21529023067925E-0003
 3.12149548111344E-0003
 3.31076953893351E-0003
 2.95648812249898E-0003
 1.90469819734308E-0003
 1.92561285542531E-0004
-1.51343076148114E-0003
-1.79551795801006E-0003
-2.26474582810379E-0003
-1.77653424471693E-0003
-7.50092900560047E-0004
 2.94786793621667E-0004
 5.28752716910927E-0004
 5.61210765425561E-0004
-6.11576943556017E-0004
-1.79409970625327E-0003
-3.56471392211158E-0003
-4.11683952536146E-0003
-4.88819054122521E-0003
-4.69049734608041E-0003
-3.44207958451826E-0003
-2.48223468393312E-0003
-1.72607663703205E-0003
-2.43234701558884E-0003
-3.26586028202636E-0003
-5.18110419045399E-0003
-6.58348187492795E-0003
-8.14187629663292E-0003
-7.91689160121063E-0003
-8.68427805480753E-0003
-7.61738970784311E-0003
-6.74756908762866E-0003
-7.32449460612897E-0003
-7.48609480620524E-0003
-8.70654658477703E-0003
-1.04909978045258E-0002
-1.15233559943577E-0002
-1.25857554621198E-0002
-1.26157287173787E-0002
-1.11722481424977E-0002
-9.84729188157460E-0003
-6.97648184860063E-0003
-5.79577966867229E-0003
-4.33629619324575E-0003
-2.72672379411188E-0003
-1.32183032005679E-0003
-3.38411653628188E-0004
 1.67496516310468E-0003
 4.96581662671643E-0003
 1.01984327906171E-0002
 1.47603435778689E-0002
 1.95398309209102E-0002
 2.51808243145139E-0002
 2.85926062430222E-0002
 3.19140401088961E-0002
 3.44761022817702E-0002
 3.59781650045485E-0002
 3.74665277352687E-0002
 3.92713063945675E-0002
 4.11659639220811E-0002
 4.25026685370721E-0002
 4.34691036825812E-0002
 4.30525004460550E-0002
 4.02560716425887E-0002
 3.69442945429527E-0002
 3.24244671395725E-0002
 2.81950197339160E-0002
 2.25130331422720E-0002
 1.82129525364202E-0002
 1.52192048380246E-0002
 1.24156801900058E-0002
 8.67857615396551E-0003
 5.54474138623158E-0003
 2.41995842603258E-0003
-1.85201722836144E-0003
-6.48675321887035E-0003
-9.35099570663542E-0003
-1.22315511935851E-0002
-1.42460573504308E-0002
-1.50659249540794E-0002
-1.50141524956978E-0002
-1.36778584632496E-0002
-1.38956062624683E-0002
-1.33840311642702E-0002
-1.45677532840432E-0002
-1.46605550605168E-0002
-1.56088094625749E-0002
-1.47778614714898E-0002
-1.42526623829013E-0002
-1.30260761462168E-0002
-1.10048733039956E-0002
-8.06722781765865E-0003
-7.28998909615851E-0003
-6.34572614484459E-0003
-6.53682225751196E-0003
-7.16344082251943E-0003
-7.74453240487518E-0003
-7.83409727142203E-0003
-7.21371812935459E-0003
-6.29197666665503E-0003
-4.46669015049887E-0003
-3.00953476816318E-0003
-2.19732155253138E-0003
-2.60314032415898E-0003
-2.99497671721099E-0003
-3.51048388397828E-0003
-4.83764999194820E-0003
-5.95380028422772E-0003
-5.04361961031613E-0003
-4.56996141957287E-0003
-3.69524395625809E-0003
-2.45476957705646E-0003
-7.78889086277712E-0004
-9.60680382507343E-0004
-1.53553991950288E-0003
-2.34318852293533E-0003
-3.55008837866218E-0003
-4.12142292593028E-0003
-4.52358234752893E-0003
-3.81513845506129E-0003
-2.15936465931881E-0003
-9.06305000966803E-0004
 7.37254696018623E-0005
 2.58884997978181E-0005
-2.52917819167240E-0004
-1.40479838639905E-0003
-2.21820225691935E-0003
-3.23185372915168E-0003
-2.13445114236582E-0003
-2.02959548608430E-0003
 2.42050471611726E-0004
 7.72838704663862E-0004
 2.51686027370657E-0003
 2.24416166743513E-0003
 2.10598093414726E-0003
 1.47200423785505E-0003
-2.21464593633432E-0004
-7.20243351069690E-0004
-1.87827740681206E-0004
 7.91309206025986E-0004
 2.90229172027500E-0003
 3.85653281923194E-0003
 5.36827639660944E-0003
 4.92162890426054E-0003
 4.76852021528179E-0003
 4.27284081796772E-0003
 3.50931800712813E-0003
 2.34984726905472E-0003
 3.31099829369348E-0003
 4.50459513066227E-0003
 5.29055320418697E-0003
 7.30923167907437E-0003
 8.65805011968078E-0003
 8.26777255379144E-0003
 8.49115651602806E-0003
 7.62269168602156E-0003
 6.98631566532259E-0003
 6.02013502689453E-0003
 6.38686831068871E-0003
 8.09408423531544E-0003
 8.77022416249173E-0003
 1.11873864697809E-0002
 1.12626551460819E-0002
 1.19207301394470E-0002
 1.14282666744898E-0002
 1.07118839208115E-0002
 1.02863469384698E-0002
 9.28721949330913E-0003
 9.54898925635582E-0003
 1.02038504032797E-0002
 1.20511289191662E-0002
 1.35504971412925E-0002
 1.46925417699384E-0002
 1.42930399792886E-0002
 1.44127738773332E-0002
 1.32391463679944E-0002
 1.20135532081884E-0002
 1.14657506876764E-0002
 1.14293671164900E-0002
 1.22716639780000E-0002
 1.36380737460891E-0002
 1.49220568418971E-0002
 1.50242591446333E-0002
 1.51165980755485E-0002
 1.50454118981802E-0002
 1.38011447128284E-0002
 1.22430065103031E-0002
 1.13044580185497E-0002
 1.18876574956777E-0002
 1.23046076074793E-0002
 1.36621282212448E-0002
 1.39513791888014E-0002
 1.44927599493693E-0002
 1.45657284793485E-0002
 1.38256841991203E-0002
 1.27676245765124E-0002
 1.05471385279197E-0002
 9.79989245916899E-0003
 9.76771407271560E-0003
 1.02060393776869E-0002
 1.11409226629370E-0002
 1.25213905876287E-0002
 1.24916900718451E-0002
 1.17237742223962E-0002
 1.06771168977107E-0002
 9.42498307937962E-0003
 8.52824275550416E-0003
 6.81769464923746E-0003
 6.32799485219986E-0003
 6.71259294760171E-0003
 8.37949861396650E-0003
 8.74396351306815E-0003
 9.53508389176943E-0003
 8.96363437668750E-0003
 7.97649229815501E-0003
 5.64531089345803E-0003
 4.29912253151677E-0003
 3.33449300755263E-0003
 3.45803307800118E-0003
 2.99141291256241E-0003
 3.69335545762153E-0003
 5.12264607783863E-0003
 5.39236427093644E-0003
 4.55583731317977E-0003
 4.35155961862420E-0003
 2.54384595033316E-0003
 8.12886122871076E-0004
-1.60057713258686E-0004
-1.35967268053980E-0004
-2.47375722181389E-0004
 1.12612874925883E-0003
 1.10402598873928E-0003
 1.82768216313587E-0003
 1.45436559187129E-0003
 2.68153270677091E-0004
-1.02106927136577E-0003
-2.45373710476738E-0003
-2.85588520799546E-0003
-3.33260786153470E-0003
-3.18685776830002E-0003
-1.93626041375751E-0003
-7.42788762098477E-0004
-6.15129740180969E-0004
-7.71553822646553E-0004
-1.46822473327264E-0003
-2.67021006532849E-0003
-4.94729484353788E-0003
-4.95583021045991E-0003
-5.90576463830665E-0003
-4.55091726761577E-0003
-4.08123119976400E-0003
-3.01997592030011E-0003
-2.71541322282143E-0003
-2.40846505381769E-0003
-3.37651834744125E-0003
-4.63943044288410E-0003
-5.81791357826679E-0003
-6.86622552316898E-0003
-6.48335067103013E-0003
-5.77372831805982E-0003
-4.74031410624648E-0003
-3.92849708504252E-0003
-2.86471567390672E-0003
-3.42576803255004E-0003
-3.82529986358505E-0003
-5.70558554191809E-0003
-6.28660509520948E-0003
-7.86127677080476E-0003
-7.06475539682501E-0003
-6.55279521528482E-0003
-5.71823543865087E-0003
-4.62830486991112E-0003
-4.31152081081508E-0003
-3.77514999116223E-0003
-4.76613818623378E-0003
-5.90355513952323E-0003
-7.37327343863572E-0003
-7.36263420558313E-0003
-7.58403794506857E-0003
-7.51041241366337E-0003
-5.80544419075064E-0003
-4.97072494173769E-0003
-4.38742335239639E-0003
-3.63544173921643E-0003
-4.90198286297657E-0003
-5.54798036244447E-0003
-7.45170795326704E-0003
-7.58311523695030E-0003
-8.20086587896725E-0003
-6.83052959265742E-0003
-5.78587497466317E-0003
-4.65852850243095E-0003
-4.00824476811288E-0003
-3.60522992622712E-0003
-4.35542123955098E-0003
-5.45487542126931E-0003
-7.19513981869619E-0003
-7.95626127941983E-0003
-7.54650593335651E-0003
-6.64054119437613E-0003
-5.83358885709718E-0003
-4.45993624364383E-0003
-3.75022119118184E-0003
-4.02259893534878E-0003
-4.92108665839301E-0003
-5.47951531752876E-0003
-6.69590988226363E-0003
-7.97650073500248E-0003
-8.26024153219483E-0003
-7.52990764535951E-0003
-5.47546063295895E-0003
-5.08085292223864E-0003
-3.74579207188189E-0003
-4.36148321086479E-0003
-4.87916033396427E-0003
-5.98655127260366E-0003
-7.07104457496611E-0003
-7.74093550894928E-0003
-7.50262141929175E-0003
-7.36760772855129E-0003
-6.15800838485507E-0003
-4.61792734547203E-0003
-4.21576005634888E-0003
-3.46376382774912E-0003
-4.31502209866336E-0003
-5.60350332381425E-0003
-6.41401620292152E-0003
-8.07929196066472E-0003
-7.94583374509984E-0003
-6.47155611633904E-0003
-5.72126933905781E-0003
-4.61206212110270E-0003
-3.80601952445428E-0003
-4.08392627925096E-0003
-4.52314964637424E-0003
-5.89356082657861E-0003
-6.56315045663250E-0003
-7.45515050491164E-0003
-7.52277315422057E-0003
-6.43475474374903E-0003
-5.72764748421602E-0003
-4.42166509091543E-0003
-3.69784407312538E-0003
-3.35460847162151E-0003
-4.70318249497033E-0003
-5.56727407846447E-0003
-6.78806753556040E-0003
-7.58106326123177E-0003
-7.52356580987682E-0003
-6.87477459400196E-0003
-5.75481328931467E-0003
-4.66428344884865E-0003
-4.03006335413110E-0003
-3.25554884288400E-0003
-4.33688780270092E-0003
-5.72898004840424E-0003
-6.99308672217531E-0003
-7.42192952205442E-0003
-7.64435531239633E-0003
-6.91070401727585E-0003
-4.99519665638700E-0003
-4.31714539566767E-0003
-3.91935098877996E-0003
-3.30291858962999E-0003
-4.57427732894414E-0003
-5.50465639062648E-0003
-6.34282931726418E-0003
-7.75465730196790E-0003
-6.94382177834740E-0003
-6.73677050101647E-0003
-5.07918793356392E-0003
-4.60857410366758E-0003
-3.79427123928708E-0003
-3.60435135584170E-0003
-4.43262363683747E-0003
-5.65619409189510E-0003
-6.42935046385844E-0003
-7.48242185512303E-0003
-6.80715945138235E-0003
-6.40525536908105E-0003
-4.80433711520774E-0003
-3.73646768015430E-0003
-3.34928238578406E-0003
-3.43594720303117E-0003
-3.71511760742492E-0003
-5.34124409048791E-0003
-6.90212797355930E-0003
-6.93584287398707E-0003
-7.20496010693520E-0003
-6.88196708095254E-0003
-5.21313884242326E-0003
-4.25331862981754E-0003
-3.44293026911517E-0003
-3.58967817958245E-0003
-4.01903184163412E-0003
-5.49624227065596E-0003
-6.07786378222881E-0003
-7.37555710218560E-0003
-7.44997813073157E-0003
-6.02078405642141E-0003
-5.38479266984939E-0003
-3.57894171649434E-0003
-3.38188851535750E-0003
-3.33710508880787E-0003
-4.20262553305102E-0003
-5.33080505397828E-0003
-6.11568584591391E-0003
-7.27166780921704E-0003
-6.47996060444058E-0003
-6.25252214999894E-0003
-5.07544893001592E-0003
-3.97592498846375E-0003
-3.43293246316622E-0003
-2.89170447389792E-0003
-3.89926736250841E-0003
-4.55819546703227E-0003
-6.06905479836957E-0003
-6.60995196675524E-0003
-7.11481899966616E-0003
-5.93372225838136E-0003
-5.14413869622251E-0003
-3.38750808794356E-0003
-2.77883522124895E-0003
-3.16999092431193E-0003
-3.30146160342471E-0003
-4.19699624099568E-0003
-5.20981846444350E-0003
-5.91758866173996E-0003
-5.96065236942743E-0003
-5.41670353047709E-0003
-4.25657031775992E-0003
-3.26706695588514E-0003
-1.71092213053658E-0003
-1.43592847793729E-0003
-2.22710360015146E-0003
-3.55932814456069E-0003
-4.71327428301815E-0003
-4.91785103010617E-0003
-5.42047283724531E-0003
-4.49494405838597E-0003
-2.92904996574190E-0003
-9.35025693904920E-0004
-3.90616495214858E-0004
-5.69200857847455E-0004
-6.73465329815769E-0004
-1.37890167850878E-0003
-2.82052826802067E-0003
-3.17181788900763E-0003
-2.80998047112739E-0003
-1.86191619576167E-0003
-1.97107174888303E-0004
 1.56068070494896E-0003
 2.91260861326938E-0003
 2.98828529081862E-0003
 2.84188879634395E-0003
 1.86570853405396E-0003
 1.12909195079010E-0003
 6.30433055883635E-0004
 7.99589456377474E-0004
 2.35627633604496E-0003
 3.16842741502303E-0003
 5.14463090325970E-0003
 6.37370005668641E-0003
 6.12864798953791E-0003
 6.15866036933637E-0003
 5.05008434001068E-0003
 4.64385345068005E-0003
 3.88635156777306E-0003
 3.85887041186749E-0003
 4.43473762671334E-0003
 6.44918642619524E-0003
 7.23866833891331E-0003
 7.96157447377882E-0003
 8.74185211064980E-0003
 8.32863384983001E-0003
 7.14270331784578E-0003
 5.85718283379472E-0003
 5.24396126290713E-0003
 4.57702980945507E-0003
 5.63905483580935E-0003
 6.53845605045109E-0003
 7.48436426595120E-0003
 7.78322357512081E-0003
 8.34970774464727E-0003
 6.64191879587728E-0003
 5.78063113493067E-0003
 4.46809911209972E-0003
 2.89579427454588E-0003
 2.80741595845086E-0003
 3.06906957240340E-0003
 4.13014315966770E-0003
 4.64575374370434E-0003
 5.35295109055654E-0003
 4.69014909831734E-0003
 4.32719155800036E-0003
 2.02019649429439E-0003
 5.14538436193848E-0004
-5.95770253982121E-0004
-3.93043224541384E-0004
-2.36586088850748E-0004
 1.89148067065488E-0004
 1.17788374171850E-0003
 1.91244850447529E-0003
 1.90961990535674E-0003
 4.36494665843506E-0004
-9.06814204686101E-0004
-2.66304416331542E-0003
-3.14301577694071E-0003
-3.82534767036114E-0003
-3.08917719797652E-0003
-2.21406164005107E-0003
-1.79283154050596E-0003
-6.89040959127407E-0004
-8.71825357213306E-0004
-2.58778802021757E-0003
-3.16903863875853E-0003
-5.21100279259724E-0003
-5.94978266594897E-0003
-6.13568558495185E-0003
-5.20181899664123E-0003
-4.27794104256298E-0003
-3.34580766863870E-0003
-3.77165594655452E-0003
-3.82649559441182E-0003
-4.83224588529431E-0003
-6.07023934572954E-0003
-8.09920689357060E-0003
-9.51269034578547E-0003
-9.59718814132499E-0003
-9.33342241736797E-0003
-8.60960893657815E-0003
-8.04391090966661E-0003
-8.69517111537246E-0003
-9.18494502030174E-0003
-9.90706993257006E-0003
-1.20351250784108E-0002
-1.27583216896617E-0002
-1.42635473641002E-0002
-1.42157752888202E-0002
-1.28920527267995E-0002
-1.06915900457916E-0002
-9.13295973875176E-0003
-6.41332398888924E-0003
-5.16453511662317E-0003
-4.30518659456563E-0003
-3.13302092172346E-0003
-1.85955333047183E-0003
 1.03132152414830E-0003
 4.48932738240795E-0003
 8.52151668464193E-0003
 1.30753617543660E-0002
 1.85070084770030E-0002
 2.33279654853481E-0002
 2.73642074368408E-0002
 3.09195406297982E-0002
 3.24945656783843E-0002
 3.45488244857854E-0002
 3.64272066089614E-0002
 3.81289870580527E-0002
 4.00919667999862E-0002
 4.17702166926241E-0002
 4.16994954840317E-0002
 4.14877209461791E-0002
 3.90805897110517E-0002
 3.54377497005218E-0002
 3.11936095890442E-0002
 2.64259398121253E-0002
 2.14449550650098E-0002
 1.73204355453897E-0002
 1.39393110454903E-0002
 1.06146243494077E-0002
 7.88902724785462E-0003
 4.42259423831559E-0003
 1.12951012126527E-0003
-3.45559344596784E-0003
-6.91207947232191E-0003
-1.08290521939786E-0002
-1.41845151181579E-0002
-1.52616245247581E-0002
-1.61695525844938E-0002
-1.62834469330853E-0002
-1.58303830969223E-0002
-1.50572666921746E-0002
-1.53277295753899E-0002
-1.51403029012136E-0002
-1.63354653059084E-0002
-1.65912761999216E-0002
-1.64850404913910E-0002
-1.57416481569834E-0002
-1.35168522380937E-0002
-1.16603476267254E-0002
-9.96982493618313E-0003
-7.95669181715710E-0003
-7.71368385616028E-0003
-7.19339457794112E-0003
-8.25642561592000E-0003
-8.58335467836886E-0003
-8.39599780656734E-0003
-8.42591734067567E-0003
-7.44859740944983E-0003
-5.59388933754603E-0003
-4.34374934342324E-0003
-3.08943781232086E-0003
-3.85403778818982E-0003
-3.85673381145838E-0003
-4.55983799519117E-0003
-5.93045594287495E-0003
-7.18311372491801E-0003
-6.70906905230594E-0003
-6.16938379698558E-0003
