446400
433388
394046
404084
380766
393106
371641
390897
376891
392504
378267
386787
372069
383433
372687
378635
369139
374472
362829
365864
356114
356661
349869
359904
369949
385049
369426
358222
347499
356059
355429
352790
336420
275901
399128
836355
1037691
576221
344583
381094
371968
363260
353444
354071
358595
369991
368884
371266
377199
380948
388514
399911
400832
417798
427286
446627
464048
493201
518109
553478
579591
606773
615080
592846
540009
482656
438521
409292
396274
393589
385117
383494
380610
384081
387917
380286
383014
381754
376962
376252
381931
380566
380499
377167
378102
373292
370749
373520
379551
374067
374092
371009
373898
369095
375846
388093
405283
408090
392996
374602
377535
375237
374224
360023
308779
381014
778115
1067110
678240
365214
395071
390941
381914
378855
378276
383330
384906
386550
384996
383835
400035
403551
404979
407358
423688
439729
463551
482574
507322
540835
571092
596835
627521
650885
646792
607424
551067
499494
461669
438729
430114
425079
420341
423452
424401
421638
420484
420249
415723
416294
417621
415530
414059
416963
411046
408785
406290
401234
402069
402825
399987
403132
407372
404234
405555
403964
401065
407198
408886
407110
406236
420612
437329
443967
433831
420777
411304
416518
415060
408756
368074
361999
655502
1057127
872593
415948
404816
440549
426771
431503
423496
431085
427094
431884
428455
437138
438225
449507
451967
467558
477621
486080
501579
523680
545056
574934
605801
638026
664372
696497
708501
687732
638450
576087
529558
499004
479144
474573
471457
472368
471049
466055
476185
472428
471509
466928
464375
462520
468092
465120
467360
463081
463476
463069
462635
461276
461046
461347
464469
464101
462826
461875
461953
465553
460763
461768
467746
483485
493608
507349
490983
475964
466992
471987
468158
468586
423687
427549
743389
1121893
879909
432865
429382
470772
468132
468716
466489
472642
467904
476514
479994
480171
484422
495172
507139
519938
541310
566254
580687
596615
615252
635916
659931
680869
705292
731042
743677
727194
684691
633677
593525
562474
543213
532492
523253
520292
520168
519093
522726
528503
524937
528316
519935
521620
514816
502338
499059
496760
491712
489325
485542
473662
465135
457413
451683
450827
470977
494684
495471
492955
488818
501265
501225
514536
500954
459597
592657
1019195
1165380
685912
473555
522478
516426
507638
491072
499563
500062
519169
520093
529033
528489
535549
530500
543243
546679
562243
570432
588741
610095
644494
678202
705492
733840
762837
776894
750621
696828
631457
581749
546021
530979
512892
509024
505074
507961
503807
504028
503776
505928
501418
503823
499284
499623
496703
495344
489904
487661
483235
487194
488517
484216
486601
484380
486432
480244
483095
477726
472233
467292
479420
483416
505980
494521
483186
469618
470757
462254
474593
440549
408158
633069
1067868
1046286
547169
448772
490319
473769
472123
465931
469958
466546
480328
470701
478418
476722
483202
489520
499495
504792
517390
536151
552197
575326
604147
632061
654111
676721
704670
713153
689518
641643
582009
532573
498969
482895
481626
475947
473238
469700
472846
470300
465625
464916
458074
460471
456695
456439
456026
455038
450384
445595
444202
440957
439897
438733
433713
432071
432092
431765
433765
428601
421291
414358
412048
416477
424926
443188
446623
433544
424452
417299
415192
410026
407220
362913
372820
686921
1046234
795587
382541
398235
429400
418494
416688
409186
412169
408894
417442
416919
425752
432290
439116
444266
452901
461623
485483
498347
519097
552046
583746
608603
633915
656632
680508
678719
643819
583029
527814
489688
463808
456029
451841
456154
458564
463147
461010
462495
456700
454532
451374
452555
450078
439967
431637
434116
430046
434985
430240
430712
431646
433272
429260
426887
434542
433068
437193
431045
433099
430341
430432
421444
429368
441321
460595
447752
429053
413214
418515
409828
423686
394906
356067
524838
937818
999941
502781
361934
426946
416146
417906
407990
414796
412152
419187
419330
423594
421466
430202
432528
443976
452648
467024
478786
499855
518532
545598
574143
602048
631740
657926
677159
666497
620861
559402
505033
461876
439834
433450
430141
428813
426449
423314
430178
426299
424430
424229
421599
418967
419895
418105
410508
408591
406440
405354
408650
405876
405056
406886
404830
405600
399854
400483
404169
403065
403878
405040
405822
407463
403392
399031
399725
400374
404701
420226
432106
425939
407797
398710
405362
403714
401592
370037
397577
697214
997642
708997
314497
351779
405139
405445
412286
405574
408440
411578
416611
415454
417796
425482
434985
436952
448887
459334
473107
488333
504240
533002
567030
589537
612844
636409
660227
670206
647119
598924
541616
493529
461480
439803
432101
431633
426913
425517
423640
428285
432732
432192
430912
432708
433916
425040
422582
423913
418939
416976
417715
421271
417297
411330
410884
413871
418211
418245
431720
433249
417516
411392
408226
405113
407386
408708
399278
460172
730911
874874
540022
280096
346797
404744
407072
413993
418712
416263
427191
429491
430395
431887
437414
443042
446348
458153
471476
483729
496867
520135
542573
562909
586806
607667
629593
639908
629258
593179
542982
493872
459350
439442
425101
423071
420616
415782
420598
424982
430285
433449
427039
427359
424527
430869
428087
423433
426483
421184
413039
413618
414197
410755
419743
428895
420541
409061
407085
406479
404479
409667
405948
391307
467691
728524
826536
497495
290471
359137
404732
411221
416139
421180
418786
419576
422080
423244
429948
440226
440829
444661
454607
468697
485948
501292
518994
544343
565097
590764
613415
629364
633946
616767
572735
521392
473963
445374
432524
419764
410350
405767
408974
411477
413160
416745
417544
418747
419588
422017
419311
415695
415249
410478
411148
407322
406961
401624
402999
409323
425020
411172
400618
396399
399492
394297
397488
389169
361785
465558
740886
818739
477329
314672
379131
403326
405545
403504
405167
405545
416842
413881
413331
415810
425657
427049
434793
442306
454533
466697
479007
498756
525838
550668
573094
593601
612879
609031
576351
528139
478764
443310
426467
422854
411568
410233
407963
401453
404954
411038
411993
403948
411946
413275
415171
415899
410503
415595
409027
404130
400874
405023
399686
402167
403685
401414
399193
398426
400715
403200
405758
403939
401087
400840
404105
397320
398967
399420
398614
401706
403362
403350
407559
406595
407570
407932
417777
430095
423536
423809
415315
401838
402626
402836
398384
374840
428278
691174
860150
585981
330407
371609
406966
408857
407763
407132
411879
414954
420047
428374
430393
427968
431191
438156
447692
451312
463365
479966
495126
522048
552204
573493
600282
629674
651394
654410
632109
587999
534864
497364
464542
444634
438906
434513
432119
429381
430796
428458
430550
432237
439786
436085
436184
436443
433926
433359
431753
428264
420698
421981
421826
420060
418404
415423
420964
424342
420307
426604
426898
439867
451809
455423
446965
434978
416472
418198
415214
413416
394309
368692
462842
751713
843309
496289
332195
396304
412140
410555
421595
429211
419473
425401
431402
426313
427396
437510
443608
459180
475809
458993
476537
521720
528058
585497
593463
603419
634410
647947
662959
637980
598682
532629
492756
466537
448930
456834
463352
458038
452737
448454
445774
445593
443716
441624
440751
437385
431576
429725
431121
429521
428672
428528
423532
408897
420440
441414
434339
428472
415375
410887
400592
392021
390429
394975
415418
402236
408979
423160
434465
460731
444425
417647
426417
430219
426642
426170
387502
425154
676833
869056
606975
354582
398350
423678
418017
411972
412209
413022
419623
416495
412746
404792
400283
398308
426836
463349
468162
473890
489808
517069
533482
557474
585274
609763
637294
655752
641564
590790
528540
482350
454532
437566
436578
439958
434613
427822
417006
405186
395884
403022
405560
410522
421779
434534
433542
431546
433773
422228
418786
420580
427614
425972
418920
409020
401250
396976
403551
408633
414808
416794
411624
405569
402335
401423
405077
405471
409665
407351
411651
413905
407285
420199
427796
426106
417700
409656
401673
401768
401286
402434
358401
374946
638650
935298
738915
405025
400028
412216
399415
397062
398018
398685
400243
410283
409791
414951
417589
420884
421977
427062
434764
445684
458796
470683
500226
534655
563073
589618
617500
643867
641934
609720
558677
502950
465648
442680
424065
417842
413019
408795
410600
409222
411335
411346
409500
407458
405271
410249
414377
409037
408601
409100
404526
405509
403939
403498
400458
404206
400941
396197
399128
400937
398723
397758
396639
401354
396454
399787
401822
397685
398241
397321
401086
393047
396554
398343
392951
388531
397630
400562
404980
401864
407580
424096
425359
413926
409108
392410
392742
386511
397483
367746
348412
546651
884777
847416
450960
384284
407641
396816
400257
392521
398105
396004
406596
397859
400535
404102
410391
409683
428394
429532
445970
462139
478016
491017
520275
551841
581647
604684
632970
649736
636107
596066
539257
491531
453529
431096
419403
412513
410321
414067
409401
408140
408014
407430
408212
412156
409728
407251
403469
409368
405058
403661
402549
403395
397647
401794
401214
396503
394046
393470
394681
391798
393342
393859
395066
390397
391149
390776
390552
390836
390735
388291
391255
389922
391423
389517
397277
394662
397656
409916
420602
408182
404632
384392
385812
383243
389387
373489
330795
437601
768379
914561
548585
361319
394307
390879
392134
388525
394386
391566
393488
392732
397951
398310
403951
406222
414098
419830
434881
449098
463426
476914
504293
529816
559700
587987
612641
628788
626731
591025
537440
488294
449023
427214
413363
405400
406265
402009
398576
397037
397271
399720
398377
398774
396848
397320
397679
397208
392612
393370
391465
392627
386515
385065
384610
385570
381946
382009
379229
376038
377559
379966
378514
373664
372323
377290
378235
377245
376530
372925
382562
377002
373513
375254
375143
375330
380938
377653
378393
389755
401571
393608
392887
377321
367346
363222
369787
365813
314716
370572
696308
936034
625520
349477
373176
375289
368678
363592
361039
362371
367491
365454
368104
371793
374310
379578
384312
394048
402058
414759
426310
445362
470745
498160
528027
561456
590462
617091
629923
599633
545594
489558
441802
408597
389777
378150
376821
373728
371594
376327
376084
372644
367503
372263
373823
371191
373057
371311
369488
368777
368596
364787
364431
359953
360812
359275
362204
361316
358996
359375
359626
356840
354931
352975
353101
351847
346317
354477
357007
356520
355074
356949
351911
357584
360047
373185
380196
383251
376470
370594
352482
354390
352857
358682
332271
314136
505433
832754
801643
386408
300377
356536
358437
360458
353921
363909
366009
371620
366743
373920
376394
386435
385822
394671
400402
414325
425030
445040
464622
491868
516903
550136
576723
603938
621268
612170
567621
509304
455792
417856
396369
381720
377966
372634
373673
372955
374423
373622
374436
372710
376122
373416
373563
374369
374068
368409
372692
368935
370241
368095
363013
362381
363564
360850
359081
359503
359949
358746
356062
356138
357026
359009
358220
355700
355018
356760
356882
360716
354950
361500
357123
364413
373056
383464
378045
371007
349623
354135
346209
351759
322573
302242
502559
843326
814223
414329
339985
370176
361488
366157
356211
357313
355075
363265
360244
369129
371908
379613
382774
391213
396544
411247
425417
441939
460978
488731
513025
543412
570239
597775
613489
604597
565930
510360
458560
418912
396801
385499
380775
378661
374998
374634
380396
384189
385715
380397
377307
381191
382641
380011
381470
378709
379352
378571
378214
371526
373774
371952
369370
368172
365858
369885
371943
367068
365324
368839
368134
372149
370843
373023
372451
373974
375375
371638
371983
371595
371195
379548
395676
398715
396784
386423
376662
374328
370404
368112
317939
338597
640380
951916
711373
367617
370660
378601
372081
372277
369197
372625
371122
372449
377346
380302
386438
390141
386525
397086
408905
422951
435787
453280
473143
495800
526576
557798
582977
607034
618435
599057
548459
494879
446717
414328
401349
396012
390278
386515
388396
391419
393093
391404
389838
389107
390231
391861
397901
398480
399290
401241
396985
393026
392421
387291
384331
382134
378561
375995
373870
371774
372942
373319
375168
372096
368854
369569
369186
369385
366421
364623
362045
367803
365155
362228
369660
387984
389995
391038
378174
374898
363984
366632
365534
317259
381338
746168
965602
571457
314475
372930
363748
366096
378032
375315
391831
404538
407999
406292
404967
413991
414487
426122
425958
440131
465695
475930
495558
526454
564188
589126
606241
644473
660149
676053
645778
594308
530686
478860
445836
424803
405989
401170
425694
411544
410267
410529
416367
427614
444698
434315
429528
422517
420332
410377
395273
388122
391977
383459
368872
390829
385205
361394
350955
359753
365508
363726
353590
355025
369139
372055
371537
365484
364274
376951
367513
371992
373535
373971
358488
345207
336756
332606
338950
348787
311997
316788
595056
928595
745108
352407
339597
367584
354955
358149
359270
361832
364670
377469
378561
388324
382975
384143
395548
407023
416807
432330
448577
467116
488580
515579
550267
575625
597830
634957
646694
631257
580565
530803
488586
454320
430441
422349
419003
404452
408776
412704
411172
408772
398735
404193
405489
396576
394036
386787
391119
392879
386267
388134
386524
385025
375985
377553
383802
373758
378411
374806
374220
377828
376242
371227
368560
355250
357844
358397
358415
366127
377938
377768
378044
370326
365936
353807
359270
355079
304807
403027
761782
910155
483268
270335
327061
332654
338989
338304
351536
342412
348099
339349
342942
356381
367530
365965
380633
386051
404149
422503
437138
456692
486165
520575
555194
582849
615726
641283
642065
602011
547199
488613
436808
408499
400585
396630
388191
395951
396781
396338
391825
396160
390679
392710
388806
390938
383353
381417
377336
379897
380907
382927
377439
374409
383734
385743
388401
387768
384870
381399
384806
387000
395161
390566
391587
386088
395757
400943
415269
428315
426549
414863
415170
402701
409762
397119
396676
364511
338483
554909
935773
860381
379125
305773
367649
378531
378682
359541
364761
363409
367491
363683
373401
362968
368921
380803
392150
399956
408701
427853
461082
491715
516684
542727
576924
605990
645530
666299
653487
615182
552315
493365
452049
424407
413071
401706
394440
390072
392786
392121
389979
392180
393642
398636
399291
397600
397348
399794
394512
394569
390617
382969
381569
389925
387063
386509
388869
395304
386508
392621
406860
407772
393638
379684
369677
363329
362205
366212
366375
359862
485153
803583
819070
393474
230919
310022
359883
369182
372894
378776
383004
394267
389431
395824
399240
411157
420444
433766
434126
450858
465263
482228
507636
533781
563894
586170
605276
627630
639671
629141
587629
541895
493597
449269
421491
412187
406453
399023
401686
401932
405192
403880
402615
401408
400195
399876
400952
394532
392386
392539
395701
393286
394085
387924
390563
391217
394566
408332
412363
411137
405550
391372
386143
382809
387220
379302
350583
438338
727645
845410
505491
304004
360561
383552
383098
378633
389747
386389
388083
400165
402235
401247
402004
406253
417661
422939
436991
448160
468279
489085
514229
542037
569498
599462
619975
628318
610483
555546
496862
453725
422573
401473
392831
387532
381534
383906
380783
381552
384585
387366
388018
392015
391055
395204
402792
395665
394157
391103
391398
387559
384016
393605
400775
399784
383311
382497
381442
379173
381039
377355
336366
360415
634201
919543
698566
361480
369791
387981
383901
379221
378539
385544
388192
391572
388122
393876
396529
404175
407025
414410
425747
440085
452129
476529
502930
529010
557378
584381
608788
624710
606926
566684
507967
453961
424834
402325
391540
391582
393874
388495
392375
392117
388459
384511
386679
389876
384384
386811
387692
384842
381478
378378
377909
386713
397661
399260
377089
375091
367748
367369
367872
371063
336774
314852
544049
895369
791039
380942
342339
376696
362555
371339
364945
367649
366035
378687
376963
383884
383104
391802
395660
408171
407048
418330
437652
464624
478030
507463
537719
566526
594703
612025
597935
556534
500462
446759
415984
385605
373854
370912
369334
367228
370519
375244
378134
370032
378166
368333
363865
364221
369744
364541
360062
359337
357250
352205
351153
357070
358925
354473
353646
349955
344985
348518
352773
355580
346752
344032
342584
361820
369474
381198
368528
361587
329129
343362
350147
359713
335979
288232
419853
806725
943552
507689
329277
369242
362369
361524
346734
351849
350204
364336
364797
364925
350461
359967
382169
391095
392917
400103
407846
437149
461704
478771
508135
546220
585054
611084
636173
627321
573908
518379
463136
419433
394870
385328
379816
370751
365443
365356
374939
386532
375853
368810
383140
374492
369415
364260
359958
355607
355629
356421
345852
346278
341259
346917
350082
346813
342246
347312
346425
351345
352018
356214
362833
363491
366656
375892
386137
374563
373865
361056
358708
368252
378894
360485
362617
349434
350496
330378
314845
289408
228290
326952
710512
921981
521858
289043
334798
339429
335208
335526
355184
349677
349332
345324
350953
352870
354812
356878
362115
366312
381032
391492
409868
429904
466394
491826
518298
546033
576383
600175
602830
574269
514095
456031
409246
379157
360565
355539
347402
348551
354772
353789
341388
346030
348818
342680
343724
342549
337798
333282
331086
332480
328534
328617
328505
330416
333070
331987
332017
329648
329611
325128
321852
325082
327849
330606
328253
326859
337219
354905
364720
347481
335057
332032
331136
331659
330634
283026
288638
593190
945649
703055
303590
313457
339115
331378
334984
330906
329871
327470
339200
341614
348518
345438
359262
367135
375431
384067
397803
408026
425138
455169
481519
511621
539705
574457
605302
611500
586640
537476
476145
425729
387142
372542
367455
358582
355697
353090
351682
353502
355145
361472
358506
352458
344246
338936
343850
346449
348983
345024
340361
337520
334186
335565
335082
336828
340845
338904
337140
331495
334507
337178
339617
341409
352631
367813
372172
356281
340824
330914
338727
330570
334079
320107
274260
364644
736279
918463
498738
263060
325271
336068
338200
330638
337499
333254
339403
347491
354817
355330
367176
365711
374245
388712
397843
410145
430398
449473
469013
498215
532776
564771
590446
614365
617874
576544
515578
459545
407751
381616
364106
357113
357861
359747
360129
358793
363519
363396
357914
354871
356077
355936
350643
342273
342970
353541
353625
345701
344343
344760
345270
340068
339422
342006
339569
333340
333993
352913
358888
368624
375268
376128
368079
353294
339105
343223
338702
338134
300154
297300
577973
937439
752782
321713
314692
356389
348581
356235
352726
356853
354440
361361
364713
380563
374254
377908
386862
401774
408233
419537
434970
461840
477741
507147
546455
581153
604843
635514
649727
629906
575457
504433
452652
418774
399087
392112
388656
381511
385319
388383
389730
380412
385979
389306
385471
382182
379755
377730
376465
376527
380310
374623
371529
365597
369361
372011
368158
378701
400068
391313
375005
370436
360208
365124
367550
368326
351830
410845
702432
893496
549566
243214
302966
364665
373606
375463
372634
374650
379203
387746
393598
396406
398291
401585
416016
427707
435971
453745
467873
489580
517274
544714
576347
609775
643771
653374
639168
586810
526496
475396
434133
406864
389811
381896
383565
381071
389538
390032
393354
391934
394456
400862
386513
379940
384564
384240
376796
375518
366915
374827
376740
386696
397673
394081
370522
367349
367162
364224
359640
360994
320593
329458
609775
932726
719874
339459
351288
376630
373196
368605
363414
366659
364999
374575
379120
379532
378917
385435
385908
400817
407567
423755
438801
459665
479602
512524
545397
563834
586706
602491
587495
541007
485714
439651
404502
382916
375149
370927
371821
371415
368761
368517
363994
364911
365176
365692
364556
365198
364651
362114
361344
362918
374716
385788
371220
359605
357409
354870
352909
354081
346363
297214
339434
676536
975568
672167
346541
362185
366378
361716
363613
362258
356863
359547
363601
368328
366083
368742
368840
376071
385468
394949
405216
418387
440386
465370
491463
510511
532199
558806
572457
543632
496186
455585
426135
410570
398296
399598
399973
396517
394440
385976
393957
399921
402400
393412
371736
359134
362558
352163
342915
346486
348932
341027
325195
324698
321207
322711
321469
312056
264433
257250
546235
913267
709965
335355
312067
321626
327591
341498
352794
358243
348496
329967
308988
309216
314960
331647
338188
338089
339700
358112
383511
406923
420973
445443
473921
501868
525526
533316
504850
459296
410759
379461
364202
356840
358132
353124
355353
357936
357523
355802
357039
344895
340956
340473
341882
348816
353436
360401
364239
370321
386795
390542
382528
366568
362730
364512
371560
356414
336595
332282
329291
328567
330329
323991
277494
311535
640643
930857
640763
349405
354357
353988
356705
362064
363941
360668
367098
364449
365714
367094
362758
366264
379311
382022
394413
412758
428335
435052
456806
483466
506703
537966
561067
569822
548782
503510
458348
419501
397968
388246
375929
374457
372543
369723
368192
371800
375163
378372
374035
375908
379822
379885
376904
370118
370307
368539
366316
359285
359329
360724
358195
359995
359134
359654
354929
354972
356966
356044
351446
354806
360491
353134
351449
355639
358088
356672
355231
361035
361812
355283
353990
357596
355259
353455
354912
353391
364039
375389
392068
368176
358626
358100
356149
354563
311769
356057
674043
914144
610395
337398
357997
365471
360972
361424
364190
362441
362957
366790
367387
365084
371368
376741
379969
390868
396146
400611
413245
430118
441140
465158
498941
527344
550380
568739
580329
561808
519138
467970
426922
400353
388493
380428
372312
372351
378085
376194
376491
372757
371528
371743
370601
376977
375389
369795
371461
368600
360697
366421
363975
361750
359390
358876
357415
359848
360954
355602
358476
354520
352494
353455
353023
357971
354749
352441
354726
354070
349735
347798
350185
364943
378421
368164
354585
350691
349959
348442
347264
304026
311627
615307
928702
687074
357134
353241
362998
353149
349837
349736
350402
351919
357021
354922
356603
356774
363895
366538
373386
385800
396556
407151
421607
445581
471840
496896
524489
551378
577334
584898
555681
504268
452733
415282
393232
377983
367287
365328
359664
361355
361978
363724
366650
365173
363684
363097
367560
365171
362315
359260
358522
357156
355651
357617
355042
351234
351993
349409
348799
347581
349875
349867
351347
349095
346540
347340
344455
344665
344432
348385
343282
342968
342082
341208
348383
360995
374886
365407
349283
345334
343022
346930
342358
299748
313194
622350
933132
673758
331275
340292
358428
346215
348624
345503
346597
349785
349489
352415
361244
365267
367650
371654
384857
393337
403144
411335
432206
453819
484938
518669
539728
562817
588121
597515
574098
525304
469424
417455
390520
373803
361330
357663
357345
353622
351573
354875
354332
353050
352712
355772
352521
355307
349107
349147
352514
354026
347899
340538
332312
331956
328728
326189
321957
319181
324321
327020
328305
329469
330312
323761
328773
328872
332666
333110
339421
353819
369547
362543
361840
339235
340811
341877
345810
330409
283959
399069
784594
919869
495835
301729
344800
342888
344677
335993
343141
335819
339424
341865
346208
347348
354440
351178
357287
367435
377278
387085
404236
423156
446578
474304
506309
540716
568253
587636
578893
536130
480155
423972
381921
360395
346550
340088
334096
335374
336843
336543
337874
342209
342005
343150
347786
344173
340978
339123
334538
331515
329653
325890
324783
325513
326675
322739
319975
321660
319086
317569
320820
320409
319111
319941
319787
319325
318175
317311
317039
320744
332319
349796
346840
341902
325980
315798
313751
311427
309233
263520
300312
646907
954387
634543
284004
308235
324474
321769
315179
320516
327030
323024
328219
331348
332850
338134
350009
354593
360854
374544
388993
408735
432698
455410
485678
516278
549181
577225
603928
609636
582349
528969
464587
416589
385316
368090
358362
351448
348101
347645
347204
345708
350562
352188
345724
344417
344513
349177
345760
347115
344980
339061
335131
333356
335629
335630
334114
330805
334992
330026
329089
330791
332486
341782
351337
350017
340601
324189
321866
320936
319983
310119
267735
306552
633565
907769
599910
284038
306972
321421
317047
311797
311992
312593
316575
321244
321671
323093
326604
334236
340764
349085
358830
371873
386214
411390
434838
461856
489625
524877
552863
567557
558823
522169
464732
408783
370646
349060
334018
326096
325836
327456
327424
326048
330599
328396
331668
334268
338593
338190
336759
332963
331716
325125
325848
325229
325341
325529
324908
323098
322553
324801
324209
320540
319575
317274
316882
320149
314411
319041
317276
325820
334511
346541
335475
333537
313535
313190
308937
311340
283338
247167
439843
841284
839803
392393
288547
324701
317510
317676
309225
315541
311664
321256
319234
320898
318201
331712
336987
347426
353760
364283
375551
398018
419153
449376
479632
505800
534676
568711
588223
568688
519734
459189
409795
376074
354896
340301
336854
334682
332360
338784
340691
335389
335032
331137
336600
339150
335268
336673
334977
331367
334790
332532
328655
326850
328638
323912
319615
322961
318747
324285
323767
320307
321364
323607
320332
315428
322709
326022
335135
347724
352702
349331
334794
319670
323315
324892
321543
275671
276364
561961
934003
745765
331012
310254
332347
327779
326155
322200
331711
330091
339543
336800
336207
335350
345081
347049
359014
365725
381161
392068
412779
437643
468037
498980
525550
554521
579357
588372
559765
506800
452082
406992
376310
359690
351284
348450
347245
346985
343201
346818
342824
340674
347663
351130
344766
344473
347963
350368
345325
341390
339475
335727
337714
336164
336211
332205
333787
336598
333542
331846
331719
335418
337584
333150
336524
340266
337490
341742
358015
361454
355026
343235
328656
333867
328585
331654
290486
280997
559403
949297
777691
348979
324722
346241
334026
335903
328681
330731
329526
337896
337575
346704
342835
347509
352922
367376
374796
388863
402746
422243
441190
470380
502477
534771
564660
591765
604017
579007
525496
465385
420379
387987
368647
358342
360742
358665
359938
364409
362022
356980
360077
364033
363735
354172
353655
355071
354356
350642
353887
352525
347890
348278
346759
348866
346111
343944
345199
350519
347437
350041
349419
344848
347541
352508
354373
349043
360049
377325
369533
370140
359573
347676
351660
344103
344981
321410
351520
635408
874683
588897
258326
290893
339970
349823
357627
357321
359527
360379
369086
369498
372506
375518
384141
390237
404702
414017
422951
437326
460459
480419
503120
531882
559268
583063
604295
605107
582492
535767
478413
432604
411962
395581
377629
384901
387434
384574
385424
387287
387416
390071
385489
389825
382861
381312
380677
381472
381593
380286
377565
375027
377976
374712
380826
381779
397594
408780
404299
388306
371086
369901
371092
372478
373901
367037
428253
658397
740077
445759
263387
318144
367190
380178
379392
386863
391424
396642
397608
398692
400091
405370
412544
422086
428217
443432
457854
466554
487933
510439
534267
563070
586062
608754
610417
585934
541024
485370
436271
410589
393565
383131
383933
378504
379007
386500
385441
386522
388859
386198
383457
380630
384932
382589
380247
371432
371958
375747
375833
373261
371276
369190
372375
374844
365573
369462
375389
375272
378956
389328
393820
387922
374797
364356
370011
363984
366643
348379
349239
533974
742127
590436
319978
323608
362221
361121
367973
373955
373694
371857
372850
377321
386965
381232
387791
394944
398116
406615
427279
434249
454979
476746
497642
525358
544208
564071
583446
583064
556524
509198
456795
415558
394412
382492
379755
374126
370640
371305
371285
369497
372771
374256
369492
371205
375557
378576
372765
372943
368034
369149
362512
360566
364462
358912
353852
356559
352865
355089
353042
353790
365090
371545
371341
358564
338948
343675
339781
339349
335829
315340
424136
692932
712295
384389
277417
335438
353869
353140
351237
356590
349331
352392
363335
372452
366092
371858
377829
385292
391447
403598
415544
433364
446578
472421
501921
530335
551617
573477
583302
563201
516530
461351
419334
390994
370919
361736
359095
360123
362030
355647
355403
359656
360663
364280
369405
363810
364359
366793
363002
359747
357982
351415
354175
353710
352370
347739
341993
346460
353076
350579
349890
352904
358977
357139
362473
377275
372123
359212
355317
347530
349040
344083
347537
323633
306009
469132
735462
679770
336040
278505
341565
349179
346150
338867
346789
341908
348254
350922
357126
354922
362701
369745
375855
381474
395734
408528
429950
442957
470297
497350
530480
554982
574318
581210
560202
509834
452781
411639
376984
362331
358022
355539
348895
347950
345104
347719
349843
350752
350203
352510
353129
355380
350944
347888
347371
349023
344650
347264
343332
341108
338633
338535
340874
338531
332278
331919
335329
341837
339683
336129
340554
336371
343318
335136
345482
361141
362907
350731
348897
329429
331305
325795
329606
313042
285702
394374
678470
753778
420237
274831
325622
336822
338735
337117
340971
339218
338364
338896
346684
351891
354465
357038
360735
371077
384439
399290
418167
429294
456001
488630
517047
541155
566771
581389
569005
528480
470175
418859
386744
367786
356135
350040
345199
346646
341550
344449
342059
344603
346580
341115
345865
345348
346983
344339
342180
342161
341640
335254
339933
336754
335376
331986
333532
334228
332114
336943
337120
333109
333984
338900
332560
332327
332339
332442
328601
334536
331980
347105
359975
351726
341748
330699
322558
331105
325217
323016
289850
301143
521812
779231
630381
305459
293794
326292
330320
333905
328448
328257
330114
339228
337775
336163
340874
345581
350275
361272
371049
383993
392418
414065
434825
464773
490008
519083
546217
574318
581495
553320
500893
442520
396749
371198
352995
344379
339874
340955
340981
336214
340481
341252
339319
336127
337058
338606
338961
335779
332797
332148
334426
330544
332080
326435
330095
332372
321184
322568
322039
315134
321626
323617
320915
319552
319032
313540
316369
317786
312538
314962
316779
320516
319589
323330
321336
332346
340354
334134
335553
325447
308330
306499
307696
310776
275044
309369
571221
790579
556689
276996
301170
320650
317191
318602
314235
318254
324346
328597
328198
330264
332928
342657
346257
355617
368980
380822
403851
425906
445649
469817
496683
522163
549612
571129
564321
529401
476979
419399
376317
348601
334202
326874
325629
329216
322914
324481
326232
327430
331443
338379
339915
339289
343711
343899
339788
335751
335173
333828
328919
327737
324105
316429
319955
321512
317886
316324
311152
313341
318737
326985
334282
340299
337461
334739
347083
347349
346600
346675
340586
333793
333200
333448
343737
357123
362318
357967
345509
328966
332439
325449
324271
298756
289780
493764
763909
645256
316252
282580
329126
328068
332823
334698
337626
338760
347999
349458
353102
360622
365103
363353
371260
378426
392080
401840
422792
443675
469985
502852
534396
562059
590447
601478
581577
532787
471531
421343
389613
367380
352132
353667
352383
352915
350568
349162
350650
351263
352847
354497
354026
356045
358666
362838
362908
356704
355117
352323
348274
351067
351754
348166
344983
347137
350255
349516
345587
344093
344040
346442
349736
344983
342768
344510
344420
341044
344635
345639
346638
351899
362382
368930
360469
344394
332060
331701
332048
326672
286043
316212
579684
817178
597392
303120
317064
333453
323465
326509
328709
332300
335204
341936
343064
351281
351285
354911
362001
373332
381120
397806
409480
429787
453943
482616
509111
540249
563416
581813
585923
554871
503002
444591
401425
371807
355665
347414
344567
338173
335645
334233
335363
333010
335854
334443
338273
338110
338366
336301
331029
330389
328750
325892
321380
318414
318313
318250
316300
317566
318929
325713
323820
321942
317917
320874
320377
321163
316920
320088
320556
318547
317609
319087
319595
316428
317636
314967
316227
316984
319764
319008
331624
342106
343359
339504
333559
315675
323414
316614
319810
279630
264103
488151
840208
774004
380652
315167
333622
319590
321996
316633
322188
320011
326136
326524
335972
332089
341790
342499
347641
353987
363902
372119
393361
414820
440417
469700
502641
529971
555142
571258
563296
527019
465234
413409
377104
358512
345531
339305
334590
334727
330849
335285
337082
336935
331247
331744
333202
333053
330580
326613
328094
327181
324542
324946
321475
318163
318293
318173
316967
310996
312322
307603
311517
311389
314914
312264
315252
312614
311824
314461
314651
311661
313844
314659
314529
315382
312572
314941
314783
315954
311424
317416
314641
320213
330566
340762
331012
329045
307191
309834
307535
315682
285967
242547
396291
767864
848900
458159
315210
327592
315472
314996
305087
311465
307494
314767
313083
321637
319190
326999
329704
339071
344295
357790
365906
378099
395598
422625
448736
475268
504034
532992
557075
557103
529237
479567
427311
382611
356110
338033
332791
329941
329185
329626
332206
329576
328308
327423
328642
331322
334038
325667
322017
320708
322709
326280
321085
319929
318257
318996
317106
316917
317351
317727
314827
318816
318487
318132
318658
315673
315706
316605
314722
315520
315339
315760
312022
314604
313727
314618
319205
320343
319892
316511
317923
316438
319817
323959
341043
337256
337038
316447
318664
312322
308922
294503
246953
341316
706768
907849
550941
317076
325950
316815
315901
310287
311273
306334
312554
315107
316417
317223
325189
327805
337318
337632
349111
361972
375738
389508
412552
435122
467509
500876
527549
553329
567481
551806
499233
445662
398963
363351
339974
332489
327700
328779
326019
324643
324809
326033
326697
329130
324024
325315
324848
320394
321922
322346
319163
313604
313642
313087
313056
311683
310237
309807
308790
309801
311932
307252
309355
307129
308937
310404
310876
310586
310522
312278
309492
306503
306013
306929
304965
306748
308008
303981
311839
328404
331298
329691
314627
306694
302794
306739
303937
254937
285445
611840
917712
642936
306817
315697
319324
309835
308280
306741
307597
307448
310789
313691
320430
322429
326088
330843
336675
346560
363472
379286
393978
414201
444932
474358
510269
540262
569182
583882
569888
523814
464527
406090
367407
342925
330586
328123
325804
324876
322801
323237
322288
322124
321714
320509
320717
323922
317572
318441
316788
317861
314368
314629
311459
306817
305496
307374
311002
308651
304090
307482
308024
305824
306083
308390
307254
302488
304777
306353
309563
304905
311812
309460
313321
319411
330926
329378
327213
305681
302842
301842
304552
291686
242222
314155
677072
922766
555391
283989
313817
309918
303186
300131
301467
299272
303859
301997
306055
315011
323065
325367
332963
338302
349590
360127
378191
398710
421789
454685
488279
521321
555975
584460
599951
574133
519800
456586
403744
361711
338980
332543
324708
325286
321812
322539
322110
321011
321944
323551
322464
322823
318236
317873
317205
315307
313646
312419
311600
309452
309293
311527
309449
310823
305852
307023
312538
306276
304420
304541
306625
306280
306133
308209
313318
310969
320107
336546
339342
330112
316376
303641
305161
302218
302183
279962
290628
553485
861292
633466
236237
232043
299074
305619
306737
307982
314892
316847
323420
323508
329816
335928
338525
346911
358881
364642
377126
393938
412539
438135
468536
498932
527794
562439
595946
615810
599419
546453
481381
417953
370211
344804
334409
327399
325842
324166
323179
325271
325486
325378
326032
325886
325712
322535
324470
323131
321206
316807
314695
313392
313172
313711
312569
307339
306812
308283
308144
308161
305817
307185
304881
305179
300498
305618
305296
307961
318185
330036
327847
325340
306234
307216
300028
303950
286371
235510
334632
711965
894508
498171
278380
318473
314607
308545
300892
305790
304954
309023
307246
314103
318308
323529
323242
334065
339882
351496
365482
383122
399330
424320
455989
485968
514763
545164
565920
569428
535833
479468
423109
376686
354399
336729
327049
325792
324364
322357
324295
322224
323071
324267
323281
319731
319641
319017
321301
319821
317666
314879
314642
312637
311282
310850
309053
308808
308863
309549
308422
308105
310144
312711
310542
310744
310664
310617
310503
313503
316222
324280
336688
336448
331879
314967
309048
305805
306283
302149
254390
300367
650756
933503
605460
296212
314332
314509
308423
304793
309541
309589
311381
311276
317133
321113
331385
335901
344314
350595
359535
368651
382168
397420
422992
454498
489026
518993
550866
584343
594691
573464
514942
452085
398033
364818
338282
327741
325088
324794
321585
322635
322265
325505
326836
322536
323965
329320
326961
329169
327876
324590
323371
327065
325338
320707
324635
336294
328133
309105
300150
290783
300978
306965
307580
305726
317126
321554
326467
327280
326584
320421
327705
339830
348321
340942
337691
316155
315109
312901
318246
294214
248128
401276
797474
881371
430452
275567
318993
310654
313195
310096
321353
323338
334110
330956
335776
332118
336103
332106
340919
346974
361030
372499
400658
422296
449894
469522
495222
522213
550297
575018
573458
540591
489677
435369
393617
367013
351888
348359
341440
336438
328451
331880
330716
331810
331199
332793
327144
327492
324496
324444
320470
319218
317790
322032
323782
324854
323820
323618
320279
319752
317929
314553
318954
317167
317692
316296
320717
318160
319130
317645
327254
329939
333778
341711
355592
350427
343371
322261
316881
312068
312486
308802
270460
343335
705259
921803
528204
249128
302717
320625
321121
321132
323562
327996
329643
331902
336152
338280
346720
352341
358158
364507
376124
386984
402933
422651
443456
478402
508760
539034
571863
598506
607563
582199
522253
456948
404999
370659
352404
341614
333366
326439
331094
332004
335734
338723
335324
335166
338242
336616
332496
329719
329981
328635
328525
326417
323475
319384
322946
322258
318313
318780
318620
318087
319063
316574
313754
314941
315411
315503
315117
321009
316336
319128
316125
327109
338562
345757
337248
331808
314529
313382
306156
311411
298708
262651
404213
782223
851246
394517
230264
302096
317462
318285
312357
317743
316914
321891
323116
331707
333936
348967
348862
357468
364284
379343
395720
416786
435591
461007
491003
532383
562563
592857
621432
625935
591715
529882
462705
407133
375645
356172
347050
338649
339139
341434
339700
338746
343293
340195
343481
340731
342559
343869
340157
334762
333482
332340
330549
327266
328716
323944
324964
323654
322692
324390
323349
328455
324920
318734
320619
325750
324295
341793
351578
350405
340091
327625
313407
318824
315830
318978
285901
290483
560442
889310
689505
279302
270636
323211
320698
321697
322303
325925
323039
332778
332158
338177
342581
352679
356080
364503
376691
391102
406477
424467
448990
484147
516338
548898
581565
613308
628270
604536
552124
483101
427022
386128
364315
350120
347410
346631
340931
341679
344030
344353
344556
343990
344535
346365
342344
344059
346638
341945
334559
333705
335480
330405
325490
330799
327867
329018
331345
326718
324299
324662
326293
327289
324234
327148
331132
333553
348416
355673
351326
344431
328204
319816
321816
325063
314857
269858
319512
652815
923293
602776
271275
305949
331756
324553
320829
321492
322600
326177
331832
336732
338075
340983
349133
357455
365110
374829
385129
402659
422868
447693
481055
518118
555694
589565
616614
624187
593189
532138
465918
413483
381381
360809
350761
344611
343152
344717
345653
339661
338907
341634
344995
343281
341535
341146
343999
343129
340786
338432
336038
334468
331779
329041
323743
322807
322244
320560
323385
323714
320837
320927
321038
321992
317805
317059
320378
321402
319650
332796
341848
339467
335628
322523
310351
314839
311860
307856
260587
271820
567898
924651
730919
337481
316956
324201
309995
309901
308172
311839
311724
314518
312998
319430
322491
329795
333429
340523
345682
360950
370873
392347
419774
448777
477807
509600
541022
572576
584882
563744
508804
447324
395799
360672
342660
331029
326969
325743
323232
320396
321045
324515
325618
322800
324500
319319
321611
321826
319803
318698
315538
316051
318025
314573
312620
312485
313066
310833
306686
306037
307109
305871
307070
307187
307888
307890
306764
306509
303873
305093
306529
307798
306479
311917
323029
334918
330739
326250
306516
305477
301758
302375
290910
234884
292957
666950
966013
626941
302696
315248
310631
302571
293562
294672
300839
306129
305619
309336
311237
316073
319243
326128
333380
340121
353861
371488
391106
415290
447717
478455
513520
543051
578402
589688
561181
502045
440995
391935
356533
334610
329344
326217
320028
320003
316256
315794
316996
315405
314087
317464
318071
317669
315118
314255
310010
307847
308780
309915
305149
305119
303554
302304
301469
301881
301477
301777
301945
304481
303599
299933
299194
300912
301299
299479
299107
295572
301699
300295
304647
301059
307771
322468
330186
322322
319975
301219
300595
294238
300794
277331
226350
350057
760035
936359
506884
284544
317432
307682
304348
299964
303578
299472
303408
297206
304528
307829
321059
326602
343435
360188
376371
387039
399379
411089
430992
456432
487277
517213
545458
570733
579146
545537
491205
436432
392204
369970
357617
354632
344943
339268
332613
330751
328174
327457
328285
327509
327119
329596
328275
327974
326755
325789
318996
318829
320373
318869
315651
312772
305100
299642
296708
295878
290988
292584
295495
293272
294973
291676
291742
286698
284385
284334
290889
286339
287492
283281
285066
281715
287870
303845
325124
328619
331854
323284
330258
337123
336980
313719
250972
339739
739877
995195
588282
291003
302764
286706
269805
254787
259813
257926
260945
254327
260771
260465
267532
273412
288567
307274
331116
346496
363264
379475
407797
441005
479789
515429
548685
580078
593192
568002
511744
447999
396807
360214
336263
328599
323247
322469
319282
323761
320565
321560
322298
324827
325993
326088
321166
325515
323412
318697
316571
315972
313531
312229
309071
309199
309231
306085
303578
306423
310236
307488
310340
306945
312638
312641
310595
305402
306183
307697
310099
311532
312402
308113
307798
305335
315764
330981
336415
332047
334494
323228
321083
317586
328106
306181
266979
427047
818231
874733
403825
240433
308598
321440
323255
316009
324822
325591
337034
339715
347387
345268
353566
356261
368046
371916
383644
392182
415080
431601
453538
481201
512961
544483
577521
604113
615302
585630
523345
460170
402340
364195
341341
329766
323349
324434
323298
328648
327255
334746
335301
334976
333207
333111
328041
331538
331016
331722
325625
322774
320591
317666
317292
315654
316426
311507
313663
311236
312065
313049
314322
314721
316761
314070
330607
339673
337106
325982
314850
300745
301237
294744
297873
275135
272417
506062
855490
730715
301351
251761
317320
319378
319529
311095
313588
312489
318426
318477
326500
329650
337656
346536
359166
368729
377473
388466
404769
429111
462023
491312
527286
562391
586814
607792
591112
542391
474256
411886
370498
346441
329688
324940
323230
323581
324724
322590
328573
330875
330670
330633
332660
326798
326712
324378
326166
323966
321732
317869
317111
314813
312735
311218
305487
305083
304704
304861
307249
309301
308355
306623
308685
313410
310207
313351
312124
317541
328466
338372
327439
322099
302749
304650
301389
303908
263780
240686
478818
885630
824066
385643
309471
324041
308067
305352
300032
300849
295918
305468
308435
316125
315520
323785
323353
334191
338551
348568
360542
380842
399257
428007
454616
487267
519514
552247
569647
566317
529437
469801
415720
371395
347442
332707
325161
323033
320513
321899
321384
317168
322957
321606
323061
318031
315513
316570
319793
317538
317698
314082
313230
312824
310003
309204
311237
310258
304777
305161
308051
305951
304392
304778
303721
306389
304484
303570
305630
308898
308916
320271
330478
330819
326569
314123
302819
302745
299586
300679
250656
259625
575608
944390
723698
331990
313833
316420
303481
298762
297994
303048
302099
305833
308068
313824
315092
319662
325415
333196
341738
356036
367005
384064
407626
437465
462767
496501
528380
554641
569252
558200
511783
452006
398494
361516
343562
329015
325540
324450
323277
322575
324294
321585
320922
320206
321031
322098
317631
316041
315183
314000
315278
316143
313869
309335
307038
307460
306603
305765
302236
303863
302853
303314
303215
302652
303491
301814
299923
301163
301989
301241
305223
302980
312766
326757
323417
320670
306831
295570
292830
291842
291500
244055
256486
568506
935093
702169
314473
305453
311991
298253
294879
292082
297162
295174
301563
302675
305385
310413
317184
319600
329658
338710
350274
363324
381811
405160
432052
465917
494350
522633
554863
574841
563373
518142
457684
400734
360890
337480
322042
318829
315113
316566
315920
314488
315096
313973
313805
314785
313888
307645
308319
306113
306640
303741
302142
299318
302080
298162
297482
297842
298432
299139
299105
298615
299549
297907
297793
298420
294989
297518
295579
299531
296355
300694
296864
307113
318196
327554
320104
313334
294291
295588
290946
295165
260094
221450
438745
862511
842208
370144
275651
306317
295345
293809
285074
292989
286383
297943
294345
303190
300402
310348
314341
326101
334325
349415
358709
376766
394720
424443
450999
484953
516397
546953
569725
572700
539473
478908
418539
369182
344218
330286
319527
311045
313145
308907
310643
311028
311388
309390
311434
309133
309295
303186
305027
304194
304993
300672
300157
298315
301127
297437
293702
293813
292730
290508
289980
293632
291431
292822
289141
292849
288796
291389
289796
294969
294870
304437
313410
318742
311372
308193
287373
290459
282677
288126
255782
220328
432357
849432
832099
352121
251882
300357
292600
290985
288951
291253
285215
294145
294111
300415
301282
314459
314813
325261
332776
352472
359869
379382
400930
428926
462144
500290
530856
562502
587534
589475
556818
492753
425222
373186
346441
328216
322663
319001
316594
311940
312366
315760
318603
315352
317786
314032
318638
314646
312879
314534
306313
304892
303799
303670
303153
302259
303043
300182
300778
299403
296878
300230
299373
300161
300208
314107
327002
326603
317352
302235
291734
294710
287098
290963
275615
278197
521456
851433
658021
230444
202946
280057
292990
298688
296037
301139
303804
308646
313239
317876
317873
327114
336875
350451
355251
369640
388249
404136
430064
456720
490176
521058
551791
586572
607942
590165
538977
470105
407530
368313
343648
330648
326796
323641
323208
324177
324337
328201
328952
325886
322147
321218
313553
311073
309004
305290
298359
297899
292543
289630
291210
290647
290384
289700
289473
286428
285764
284717
290627
285479
295350
306810
315393
308124
299298
282194
287656
276213
283498
259123
209393
350879
754393
875832
439572
266625
298169
285655
283953
277559
284434
276452
285217
284715
294158
290470
300738
305378
315643
320701
336016
342396
361429
382582
408034
435515
466537
494214
524518
549330
547099
511291
449091
393468
352447
324695
306600
303825
297487
296421
291214
294563
293381
299056
292603
297898
298355
298305
295757
296173
292917
293290
291286
280675
285318
287414
283482
280521
282283
280798
283707
277604
278922
278477
289028
283181
290276
301033
312909
306810
298800
280827
285990
278694
281794
269823
215828
317115
705417
897337
472210
240027
294370
289689
287639
285532
293107
289085
293136
296030
302473
302384
307478
317112
324705
328466
342190
354689
375269
394342
420851
452662
487904
518970
549994
578521
583138
552572
492640
428378
377418
343429
328178
324000
316384
313671
312819
309686
314067
314608
312360
312518
304525
306247
304529
304544
302449
303633
302011
297983
300828
300032
298918
298663
296593
296175
301819
305247
315832
331317
329050
311080
296161
298104
300360
289621
295287
285442
284959
458231
773171
670743
248415
167147
255288
293642
300389
300220
303129
303591
314755
315932
321652
327009
333570
336622
348345
355216
369175
384248
406063
425734
449973
478567
513418
539080
563239
579098
561721
527056
466855
414243
372304
343467
330468
327934
327116
326042
319533
324457
322412
323819
324126
326784
326717
320660
316435
318958
315984
309890
317242
309889
306842
305395
307904
305943
310741
326580
329746
306196
306129
303067
305342
306870
309831
297405
286791
462178
747452
655071
269895
204027
290032
308978
309226
307738
318810
320809
325612
322549
329881
336709
338331
344712
354745
363488
376158
384426
401554
432108
457286
484787
525250
544120
565167
578369
558909
520324
457444
405001
370901
344309
331105
329601
331204
333632
321457
323680
332636
329505
329278
332127
332432
332042
331421
331886
323093
318698
320899
313758
313988
313658
328628
340794
333849
314700
307321
307092
305075
304544
302500
272983
306736
566747
811429
556087
222389
258668
307473
309663
308825
309212
303577
310435
314542
317011
326421
321043
324487
334742
344300
350140
366434
377306
397125
425136
454426
486837
525514
552787
575386
566089
529760
466750
406004
361856
337855
330665
322140
320785
318379
315670
317159
319983
324670
320072
316954
323837
322504
321330
321360
323052
320156
319937
321258
317726
316391
315535
310310
311290
308850
313608
319716
334689
316574
309460
306399
312657
297754
307009
286742
247722
404802
757299
831538
413866
270982
318533
309697
314991
306190
312461
310663
321351
321674
319440
317165
331808
334587
345130
347813
365943
379911
400250
423274
449151
477846
511608
541817
572590
588395
568034
522170
461905
406370
366383
348123
341669
334312
332762
333448
333602
339483
331492
327455
331361
333508
330723
327245
325193
329530
325421
327886
324242
322456
323093
321556
315758
319704
322022
316171
308250
315154
319984
320948
318326
315083
319524
318040
321576
318881
319157
313227
313359
310762
316020
317219
327470
338575
346097
338845
333876
311574
310761
303268
313568
277398
250249
469921
849781
820523
385159
296862
318508
305848
304558
296666
308022
305083
317452
312409
313163
307838
323087
328016
333002
334893
351981
364752
384076
405955
428297
459180
495251
522957
551001
580438
582048
539772
478830
427247
382476
351475
329107
329082
327372
319658
321537
326545
322858
319968
319998
317840
319557
319242
316020
318236
318791
315458
315530
316230
313420
307712
306632
303439
303494
307554
301640
298545
298605
300174
305134
306031
299487
300037
304235
304530
298029
301529
304049
309890
324103
323832
327561
327050
306238
304330
303715
302655
287000
234799
296890
664388
955214
620494
301088
319888
309169
306362
320902
320327
312066
317772
313436
313811
313846
309764
322820
339412
345471
364405
375822
380724
407047
435973
460505
494036
528669
556532
595227
612470
583336
530233
470501
417831
380057
360386
352336
336799
327779
331541
327271
328652
341093
334605
332080
343115
340598
338943
345398
336000
336418
342328
337377
329625
326365
333104
324056
313870
329793
334010
323107
319688
315036
313183
320375
322266
314802
317113
329291
348779
353703
349297
338709
319597
318427
315924
313983
309961
277297
332054
622094
821081
512167
209438
257695
315253
316082
314794
322632
326231
323503
323753
325788
327681
333265
346814
360680
362530
367533
379874
398836
419923
431804
462208
496506
524007
555706
581976
595390
581041
535058
478630
421790
372986
350454
338661
331866
327305
323397
328426
332840
338639
335503
335408
333967
338060
334438
324081
320567
313043
317159
314716
314246
304562
305520
318641
326079
336675
338055
334192
328979
327557
326835
340062
348762
351153
344133
332551
311104
319317
315359
323234
316600
270528
377661
710007
836706
463273
285103
329833
322403
322311
308213
317418
310936
320837
319358
322265
324772
326949
328852
337091
345183
354652
366592
384395
399380
430332
452718
482479
506881
528252
562467
559592
518037
462582
411892
368461
343846
323175
323298
329405
321392
313291
326211
324765
321474
320665
318399
312513
313869
313857
316179
313354
312419
314722
311029
308575
310509
310082
305702
310022
307046
300249
298542
308291
310877
311207
303265
301168
299322
306125
307902
319222
323377
325522
320235
313907
291699
298221
300038
301228
289683
237828
334183
695902
884502
512807
284984
311738
306841
298136
294029
302295
300891
301621
297348
309794
310183
317552
323917
326778
325949
333474
339207
358482
388402
415910
441436
470792
498967
529660
555775
568342
545182
492187
430000
380228
349059
330312
322073
321267
319531
319731
317372
313861
317720
318209
324664
323027
319026
312231
318057
315139
310480
310134
310060
307546
308223
305203
307582
306025
308139
305719
307197
309787
301225
304234
301952
307086
307437
313418
313396
318099
333434
342551
329953
316092
300084
306295
305193
307823
295007
276487
395035
709754
756955
358077
205349
280604
301969
308455
313733
319684
317376
321127
319303
329189
332786
335690
335544
339029
354156
366556
374139
390279
409818
441399
470249
496328
529864
560042
583718
586850
562568
509783
444194
391639
363628
339526
329140
329164
328401
324796
322427
317861
326823
338523
335671
336472
329731
322620
322802
318037
313991
311532
307569
313090
314483
312373
306713
310865
307508
310760
310995
308838
307743
309780
327557
335426
333606
325564
313067
302202
298664
301341
296116
256997
304297
595187
843646
563714
276440
303856
304022
308376
305048
304168
302202
304368
315004
312632
314722
321041
326506
326666
334642
350173
359259
363480
383939
417129
442050
469268
499992
529446
552262
562490
537768
488756
434707
379448
342951
330186
316822
315483
320962
310402
311409
306758
309268
314809
318165
316380
309902
304114
312869
313153
305710
300860
295466
295531
294119
296924
295941
296128
295320
296559
295497
292780
301486
294887
280512
286964
294718
298473
301214
313426
314382
315856
312440
299812
288080
283541
279012
281219
235236
243418
523184
879932
698405
298055
287981
301942
292133
290673
289707
291123
280170
279869
286625
303484
301397
306647
309471
320771
332315
348472
365172
381710
393705
426149
448322
482281
508493
543270
575162
564743
518644
453694
397006
354276
334063
315922
309627
306107
310365
311723
309654
308843
311932
315356
311612
307263
306210
303617
305476
305856
303440
300401
299574
291291
300021
308277
300452
291548
290956
298315
298934
294429
292564
294968
297833
300608
297517
307588
306296
315681
322614
322837
316477
312529
298586
303520
303425
300023
280964
242820
332340
671001
862043
483407
229970
290074
302568
299442
301526
303976
300833
302122
308569
316966
318741
323577
325295
332222
339712
345266
355622
374218
390084
419008
440485
474080
511964
537927
560850
577800
555824
505115
444633
385455
346762
324489
318501
315981
317229
315313
315815
306962
304172
307602
313588
310236
315497
311311
303834
302153
304986
305669
304258
295736
293292
292921
297629
297493
289976
297505
295631
295272
295685
302631
296070
295161
287453
297249
303864
311665
321987
325995
316070
302510
286148
291427
284112
290884
265569
222503
377501
771997
860008
401123
245362
308130
299004
287818
278919
293713
294745
294013
290066
301903
299921
316052
313849
326765
329962
336731
350790
374891
393061
424269
453767
480589
519538
556706
583319
580232
544839
488154
431601
382039
347970
332103
331247
318809
309096
314410
319917
311544
309073
308586
310948
309355
304099
296597
302033
308880
309678
300994
298458
297346
294166
284301
286580
291458
289041
289245
286306
288957
297859
290509
273167
275124
280742
289878
293203
315781
318938
315342
301780
284494
270754
273529
270262
267758
224050
225877
504706
867218
678121
249935
250745
289744
274091
272873
267474
270715
267269
280109
288480
292216
291305
297200
304661
314756
323377
337899
357295
367675
387866
418713
447329
485211
518797
557299
582288
580897
534817
473361
413213
360538
332237
324887
313974
312522
319537
317271
314005
316005
317687
320241
315598
312090
312885
306219
305162
302629
301327
302388
304278
302599
301294
301484
306822
304505
302145
298143
300565
304233
308166
302144
317733
336840
334106
323550
313658
306017
303051
293951
297384
295812
285561
462479
780373
696229
260056
173555
268987
295370
305043
303593
311612
312350
306805
304093
322136
325897
331800
331897
339698
352135
368505
382828
402382
424627
450648
473311
503559
529967
559299
586351
585678
548416
490000
433188
386810
354711
340037
338010
329043
333904
334410
331567
331110
332485
332866
330443
325252
326196
317767
314169
315017
312470
313829
312282
309250
306789
302417
303600
308825
316834
332216
333562
328376
318427
310402
300468
306121
296485
298776
282357
273057
448620
746603
679545
277840
206024
284034
290521
305244
300661
305254
305512
312604
314060
318695
313799
325943
328025
336015
344418
353378
366431
382332
410281
438901
467988
495414
521531
548714
561001
532770
482620
429099
381563
346282
331298
316224
307103
303404
305418
300004
306372
309293
304583
305851
308091
304151
305765
302534
305189
310273
308199
300725
298920
300414
296659
300439
289785
290008
288204
290218
284643
307145
318642
321744
316517
301423
292318
292844
282309
287490
255527
237693
465615
815039
726049
334219
282155
295797
289511
295407
285299
293648
296364
296843
288263
295497
299129
310017
310156
321429
328112
340684
351769
364310
386821
415366
442519
475655
502168
527097
539930
523201
474991
421706
370668
338834
326510
318302
307745
310075
311479
304839
307055
309999
308301
308562
309613
305203
304200
300770
304687
303521
298111
296471
297905
290239
292905
287145
286352
279051
296203
309824
318140
302535
287920
284020
285032
280944
284563
265682
207597
319999
710415
892014
479291
266281
300160
285348
283045
277528
287723
278308
290113
290756
287466
282165
295817
304002
315881
317658
329237
337677
359409
383550
408377
436088
464186
493895
530494
559644
556086
503074
439148
385978
332391
309392
310873
305139
293083
288531
287917
294294
286504
293110
293670
292513
287674
286190
289036
286599
278229
280850
281475
282935
276862
273309
276134
276107
279506
278700
278937
272493
271109
269571
276057
277248
273523
271735
271922
274287
272005
264016
268190
267780
265281
259942
268418
277838
293095
296343
297785
297385
276197
260320
261100
261559
260876
223463
213588
475014
841948
682543
259220
240414
275989
268294
268720
262266
268742
266641
273689
270676
274319
276397
289859
292892
306444
307098
321717
340088
361708
376550
407590
441989
474121
509364
546738
575224
582156
550409
493995
430611
376881
340882
319875
310106
303252
303960
303927
300812
289323
295758
292225
290669
288171
295874
291414
289495
290984
292008
287408
284416
280723
281428
280511
278311
278230
275862
272025
273274
281447
272911
280792
283781
306955
313876
308475
294222
278708
260825
265893
261850
270633
244520
213627
394386
800263
827739
339245
192984
264564
269147
267735
256802
265282
264105
272237
271202
276682
279972
294573
297534
306875
313049
328471
343240
360499
381002
405091
443139
476465
508592
537727
564245
555242
514914
449344
388512
336195
303825
289936
282537
279678
280555
276155
270772
272282
274439
276690
274049
274349
272059
272917
267362
268045
264845
264182
257715
263344
257722
253298
256166
256271
259376
260453
260691
257692
260606
256776
259616
259091
258407
261245
271534
273960
289150
292695
287718
279946
274092
248890
255466
246113
248499
220985
195397
405566
819605
811116
318665
222912
270616
254560
260955
253612
262596
256954
266900
267932
276517
276022
285449
285449
298782
301039
318682
336060
353253
369804
405656
438202
475975
514779
543456
575672
578420
547182
479364
409670
360073
332171
310435
303677
298496
293860
297141
295618
294828
298610
298442
305261
305209
300211
295184
294024
293260
292559
293675
287274
285700
281801
279541
280630
283996
282054
278672
285358
290037
293388
291396
304280
311221
306250
294353
284883
275318
275671
273108
278403
260157
251979
468426
812048
712742
264468
194186
266543
275683
280202
275849
285926
282120
293492
295176
307025
305184
312641
315035
321762
324324
338858
353411
376425
396553
429380
464801
498012
522900
549674
571300
556572
513852
454114
395360
348486
326123
306098
299237
295150
299206
301334
306415
303175
307175
309805
309072
305909
302930
296034
295756
295009
288971
286566
287880
288269
287473
284945
281665
283264
284404
290625
291676
305103
306164
302759
292584
278430
275472
276496
270228
272616
247385
289068
578405
828786
545316
197916
220951
269495
278719
281925
281191
282633
283879
290538
296963
293242
300844
308879
312287
320852
332217
344979
360734
383033
405128
436501
471110
499231
527075
553159
557901
527066
477104
420189
365042
327391
307726
296580
294633
292286
289141
295107
292574
298021
292694
295519
297113
295256
293151
294062
294599
285681
281153
283889
281344
273875
274543
277800
274443
275104
278299
275889
280598
280037
299827
299281
294137
292615
279093
269689
266923
266971
270127
230697
252565
527785
833991
623238
238004
237356
277761
269728
271202
271918
277772
276498
281711
285752
289827
291021
298202
305455
314549
321103
332338
347589
370245
391338
420767
447451
477155
509030
533659
542126
514435
457015
394797
346960
315573
303794
292819
288460
288510
282195
283778
283548
283219
288480
289244
292826
293485
289233
291065
287334
284734
283105
282317
275695
276207
277023
275155
275530
276365
277380
279574
279541
275137
274699
274763
272636
268030
270835
267693
273260
276415
284799
295357
304345
301856
298894
278623
284527
286486
295621
280853
227164
322092
679075
893801
530915
284029
318416
316749
315915
315930
320786
315316
316804
312489
322622
320422
324088
323124
338202
348439
364385
391510
413274
441820
462695
489525
514413
531421
555098
571773
570866
534398
476221
414592
368451
348977
333213
335242
336967
326263
320344
330498
334024
335750
331968
335956
344165
346841
350259
346846
347907
349988
353866
354592
349055
349279
342876
335929
337838
335252
335526
333799
334727
330222
330057
333048
332124
333546
332013
331146
332655
336131
338497
343178
342472
341412
342274
348617
369734
372444
362201
359030
336198
331355
336762
337137
327241
291571
348568
665224
914829
610094
309777
342183
344249
334860
340407
346773
346131
347274
351154
352426
356466
361093
367472
373549
383901
390671
408188
420580
440576
470191
500608
541483
582614
611682
640221
654687
630275
584073
530927
477499
440246
422934
404133
396754
405193
406289
401687
396892
399031
405019
403103
399546
405516
405796
403130
410851
406833
401244
398560
395695
393754
396408
396864
394082
398717
397992
392525
386218
392461
396248
394514
393200
389537
389948
396532
392129
391634
392239
390900
391695
395843
392686
391089
395230
388441
387183
387448
396824
395922
401158
413562
420077
408241
408165
391991
391790
381284
388560
367993
338116
505962
866875
908837
464589
333464
395865
388077
387461
380566
386713
383794
395311
391613
399057
399134
411270
411851
421295
429403
447090
457397
472856
492426
522796
549283
578797
616564
650091
680118
691346
667307
612478
548213
492824
457036
428357
416876
411645
411235
407441
414973
413865
410554
409404
415978
409395
409627
408845
408991
405029
402571
399649
396361
395003
392158
394206
385623
388157
384987
387753
391356
389672
385147
388350
382204
391540
387468
386302
387850
386490
388526
389587
387235
387152
389856
385592
385350
383593
396630
399526
405021
416990
417133
408960
404580
376183
384033
379163
391161
355034
332421
546089
923364
895380
432377
343384
391882
374598
379094
372467
388278
379572
388478
378809
391391
391846
394919
398993
410759
418261
427573
439687
456203
485162
505513
538002
572512
607677
640617
669645
679265
654303
591879
524343
462088
428827
403004
386580
378474
373320
375784
374223
366596
364334
371604
370427
362424
358986
367794
366218
359874
355750
354125
353909
355490
358480
365404
359519
362282
366550
366821
362427
364535
364026
363167
360847
367851
371903
371034
371707
361744
380437
387989
388422
398394
407364
395217
384757
354248
363380
362767
365112
342110
307479
472375
863857
914930
436724
276702
357087
355186
354943
356533
367877
369280
364303
361116
377366
369637
370657
384421
393670
391477
401292
420325
439992
461099
494721
515888
547044
584123
610630
646134
665917
637637
569010
498277
439002
405602
384030
379003
365181
360715
361697
364043
365465
369342
367424
371097
378251
372454
372873
371694
379571
376362
374597
370605
368492
366761
372293
376624
382298
367635
373360
382727
375951
374684
374121
375297
373731
373900
368657
384248
382481
401057
413222
404475
395851
386276
370471
367939
355055
362956
338763
339423
613824
952645
730928
286600
289576
350655
350102
354198
351428
360192
358779
361578
373122
380469
380306
392880
396528
412270
419824
427540
448452
465605
489207
526006
551634
576971
607997
644529
664947
667631
631055
568288
500692
443682
417945
401202
391082
394024
393943
391139
393031
394216
391472
391913
399928
400258
389896
387730
384385
376990
370385
371692
367318
360993
361514
357082
364368
358796
357475
359271
360269
363957
376566
376593
388901
404237
394188
387442
380521
360341
360902
352211
355029
331486
306990
490061
879328
860916
365374
252185
337612
347475
356085
355535
355613
355606
367713
363717
371707
370841
380669
385904
399222
403310
422794
432943
452769
475832
496690
529530
567194
592853
618790
640303
641349
615896
553701
486778
428686
397924
377165
363911
360578
354062
352944
355618
345915
346701
347305
343700
341265
340239
347643
349568
352388
349539
340824
337314
337432
341872
337431
335756
328219
325740
328315
335561
337650
349692
366173
357549
341340
336139
319118
313066
312431
311295
299826
266698
355739
736238
918335
471351
205565
271269
305757
312394
310064
317295
311263
321959
324103
327488
322969
334905
345824
356135
358976
368283
388859
403262
421249
453603
475212
510650
546733
576272
601505
618853
594037
537035
478351
414615
372921
350915
341118
334950
336878
331103
334096
334032
329310
326390
328010
322301
333345
326460
315722
316115
319413
312156
308828
305012
307119
312597
310065
325141
328584
332946
313007
301408
287651
295969
289820
295870
273595
253335
458506
853252
778205
290573
216801
284850
300005
302604
288521
301998
301238
309245
304560
313322
310920
322484
322298
331439
344106
359293
366429
381111
406838
433861
464902
497114
530486
555608
580280
569607
520351
454775
392873
349881
329858
316438
320440
314302
312931
310444
310684
307315
311344
316013
310032
310911
312221
308097
304431
300823
303205
301408
299956
297400
288927
295852
298351
311298
313355
312122
294609
295587
282870
288008
280208
285826
268369
245790
468968
853216
747891
273584
217592
287188
291595
293004
287209
296623
296342
298747
300531
307841
311511
318997
320474
332955
343494
353526
368355
384565
403339
434385
462289
496402
519860
556678
581664
566219
521544
451883
400311
361708
334711
326732
320927
319501
311352
307229
314062
313713
308038
306386
299985
309857
303607
293804
299023
295607
293271
299505
295858
285953
295299
294021
312714
319797
314490
293691
284894
277221
278386
290018
292588
246335
232688
483343
857757
704980
247520
227137
289947
284773
283414
279971
284342
279068
289146
290226
297392
295573
308867
311943
325286
331456
342955
357877
381919
402304
429957
462899
495635
523003
547288
564300
536111
492882
428976
378999
340792
322291
318479
311643
305137
306742
306372
302301
301736
307437
310160
301759
301127
302768
297022
291885
294915
295804
286090
286412
295345
296013
308778
310093
312558
295546
291737
283354
287101
284738
283483
259447
259626
517203
880048
725920
250367
212692
286432
296962
300401
291104
297713
297124
307124
306174
310417
311934
322315
327389
341093
349410
364397
371119
399082
420975
455847
488319
509969
539738
565545
581146
559728
495466
427504
374302
342950
328998
322614
314808
307770
310848
306044
310901
317655
315287
310119
311692
308975
305633
302963
309120
303145
306948
309059
311086
305716
312297
329153
331640
321834
305855
297623
301108
298137
298271
293253
242665
297517
654787
963891
630856
271707
304474
320656
310752
303110
307204
309012
310793
317450
314529
329099
331970
331625
338379
348178
354330
364061
377848
394969
424772
457326
493371
530304
563167
583879
578715
538443
474797
410160
364450
343529
331796
325131
325209
324855
321919
319898
323205
319189
318973
316007
317793
312970
315907
313541
312509
307777
304965
306963
303903
302786
300796
305036
304791
300399
296376
303706
302026
305032
300237
303943
297969
310565
323453
333246
318849
307511
295554
299414
292157
295196
264631
230979
433240
846237
857066
365172
258853
312928
299466
301223
292767
297353
296213
306298
304875
312957
310600
326043
323712
334941
338495
349755
363121
386680
409640
439666
468389
504454
536261
568853
593771
595558
553496
494410
432927
377103
346036
334467
328723
321953
328514
325792
321948
318392
318508
316488
314497
314374
313918
306043
312030
303551
306720
306984
308309
301127
300255
300303
299507
296213
298442
299872
293337
293530
291948
290563
286404
290335
284945
291580
290252
292393
294867
300580
301272
303249
298278
304765
318417
334278
319573
307350
297480
302213
301921
307220
274843
268683
542781
917320
761994
297042
275100
321240
307350
310355
305229
310687
306489
316436
311620
318047
321203
329850
331250
343943
348604
364058
377217
393776
413918
444065
475280
510927
539197
574213
603007
605098
567498
502717
447165
392311
358981
343758
334398
330862
333641
330918
330017
327557
326766
324875
323049
324681
317696
320328
317355
309084
316736
313498
306531
305198
307552
305535
308027
302758
304699
305831
304710
304829
307824
308643
303860
303640
303575
306579
299155
312187
324262
333420
323172
306007
296037
304412
297216
296533
266565
266159
529898
906609
758514
276879
243739
315042
305305
303741
301919
312700
311002
325006
320025
329506
327203
338875
341302
353219
357632
369404
382841
401430
429028
460808
492963
524381
553064
578947
602840
605367
564827
495693
433628
387702
362568
342720
337914
330609
330152
330490
336639
337544
339244
334178
340984
334353
329193
329735
330704
325358
321376
321581
320714
320000
314576
315335
315327
317029
314167
317045
318541
320729
308705
315875
315772
321918
324749
346246
331480
318371
314287
325723
321948
312214
278869
255593
435895
829619
873765
384562
245878
315347
315887
309248
300407
309222
302896
308782
308762
317428
314821
323331
325511
340185
351635
358552
371510
402331
418309
445416
472402
506629
538046
565681
593832
592795
550764
488686
423289
377520
353275
340682
327912
317896
323158
319162
316270
318486
323663
318065
318842
312378
311941
318755
307436
307057
310115
298743
299892
300160
296683
298337
293986
290248
284128
281013
281140
275023
278557
280598
280977
273456
276852
285149
301919
293587
283703
266652
261860
258903
265860
255663
213186
335230
717851
871158
421652
212979
270428
268507
275186
270529
277546
273046
276633
267747
290097
289419
301822
298180
306138
315093
329824
339461
354862
372165
399237
435629
470054
501447
527852
559320
564725
534414
476064
417392
351044
314210
301991
301801
296415
294095
290348
285497
286145
292734
290931
284066
278933
280716
284689
274655
270821
278673
285155
274630
272667
273115
269415
270144
260428
272400
279014
263701
268318
279776
283912
286056
282568
279045
285580
287655
299764
322371
313880
306156
307802
322827
323903
335019
314541
275113
441309
823034
832778
364180
255399
320360
314702
320972
300184
307408
301254
307210
294144
302330
303771
310114
308232
311717
313838
331853
338404
357610
377954
401347
424197
454511
484782
510504
535825
533915
500515
439685
378883
323289
292449
274809
272501
266633
268151
258624
269342
271414
273600
273597
279357
274294
270456
265611
268436
265726
264362
267518
266685
269160
259939
260679
252043
263016
264217
270711
283176
301300
291506
276788
264966
267623
257024
264769
249130
214250
303762
678393
846454
416268
186417
258814
272604
272094
266811
268971
268832
270396
278990
284093
287030
284442
295983
312200
321507
326853
338396
363670
386761
409343
441866
471909
501088
525801
550519
557331
517819
441222
380170
342105
312443
299682
293721
296513
291930
290348
293068
293525
293983
297679
294489
297119
284186
283702
286133
291983
285386
278491
286696
277351
268389
267052
276854
283091
305471
321799
309121
280086
273066
273986
271258
281146
281627
236045
245287
558465
900444
629878
251362
272921
308614
295142
292774
303111
311710
312782
317374
319002
330663
336333
348540
353722
365048
378348
382589
391867
422795
467892
482895
513220
544525
572147
605697
612424
582140
542543
485628
431713
394483
375880
382370
375563
372301
380618
369651
355330
373018
383073
389291
394582
385799
381335
369674
370295
384723
366275
361413
371251
388221
387255
389963
417236
415408
386961
373651
380090
380457
368644
367303
375642
393755
601229
882280
704924
311000
274593
358482
382048
380245
379624
387481
395647
411927
410837
412618
421536
423428
422361
426297
451817
474326
475788
486820
518364
559767
585200
610324
638725
663173
655896
632472
585273
519069
459198
428385
403089
397507
396765
399092
404380
395025
378165
382263
399196
402463
395229
391560
386975
370428
373595
374801
393310
384854
386871
394849
400518
379179
377681
363517
359317
361589
370521
348808
302210
417738
752134
917279
511443
287431
348360
379625
396465
371680
387965
387214
378460
389197
398477
390313
425705
416915
403960
425100
441065
465621
482202
499623
519896
568136
603743
621589
653911
655815
640570
591099
533473
482234
448077
444938
432528
412370
404735
410112
413110
399913
398369
425219
417158
418852
421724
411901
407520
417239
414577
414797
442741
414380
399622
410333
388155
377678
398572
388793
364809
455974
741570
806221
442843
267885
350270
392954
399241
399970
395976
391974
392716
403295
410870
407961
415408
418415
436364
439352
446183
462552
481106
494206
524055
560016
569374
579741
617520
618694
574347
532345
487955
432366
401318
396192
377595
381042
370983
358512
355027
371040
364836
372357
372739
370638
357402
365452
381868
359311
371974
370863
362470
341376
348920
339521
344221
343559
351082
339178
324547
448633
685201
649524
312882
229992
311003
339297
335051
335548
343775
343123
342883
345666
350999
354283
361741
366002
370380
376408
389959
406852
430050
457701
483706
503079
523384
548009
559755
540664
504226
439178
386183
356294
336489
325110
319290
320969
322179
328326
328728
326224
322071
322462
321338
321086
321875
318949
315157
317145
314929
308898
306041
311505
320807
324692
306426
296425
300575
298299
291223
291269
288219
249816
280478
537171
765784
536281
293951
308002
310710
305977
303337
307053
305463
313083
315941
316391
321364
332213
336255
344418
350738
360221
375172
392495
414037
432929
460797
486110
516258
537660
542862
520685
481973
434526
391742
365159
352683
347631
345158
340410
332494
325683
319004
317481
318947
315754
319313
317258
319789
316410
311653
313695
308701
306303
305085
303305
295936
289632
283495
286561
287308
282126
275404
279981
285775
293676
289906
294550
298133
297696
299020
300989
297832
297172
300489
293483
292828
289174
285373
286021
291284
289025
291621
289176
294664
292590
295635
302733
311834
306181
305164
286414
283473
284864
285989
260130
232095
383268
668971
666003
353521
278975
293320
284840
285493
277547
279712
278247
281730
281967
284897
282514
291481
294533
304945
309344
322419
330280
340619
346344
365109
376635
393846
413422
434930
451702
457295
438756
401873
358955
324408
306410
285416
274293
269623
268812
268061
268105
265165
262834
259519
260703
260606
258857
252876
255450
250216
245438
238682
239331
237377
242323
250533
257033
263351
263553
269270
271444
261067
255565
256235
250744
246725
244758
247444
239438
236407
241001
245996
243287
261250
270276
265861
262163
254226
252018
245695
229485
227549
191218
193312
419298
678127
519753
238538
234404
248412
243097
238361
229258
231200
229880
231490
233867
232316
232543
238647
238455
243618
251262
255487
271889
282736
298704
319127
338653
363703
381603
399992
412005
401037
350880
301423
266543
239034
215215
214698
214861
208815
202829
199817
209098
210120
210515
216670
220880
220905
219254
224013
224896
224001
219087
214821
211987
208953
204869
198475
195804
194867
188641
182921
187843
183962
181027
181859
179061
175902
182583
186223
185080
178825
182610
181684
184456
197287
206139
201558
201431
183163
184659
183802
178658
172452
143556
221569
506508
623158
313134
169147
195831
190317
190299
188328
190329
189574
194481
191722
194002
193581
197150
195223
210018
209348
219564
225868
239366
247317
266961
290749
309932
332038
353465
370347
377683
357223
310307
269654
235671
216566
207612
200361
193948
190081
188304
192029
195585
194865
190946
198455
202076
204308
199615
204595
204305
201166
199823
199623
198375
205892
212045
207546
200961
201425
199964
195799
192522
197426
205235
197691
197226
195194
192997
185509
182325
184078
191008
197150
205138
199464
197929
186178
191085
184155
184890
166447
142082
261460
557178
597331
252181
148665
192438
183839
183733
176238
177769
172491
177873
181828
181568
181425
185116
189667
203323
209251
219283
226954
238542
257538
276533
294167
320519
347686
364482
382677
384204
355178
308718
267068
229017
200913
188429
189426
187970
186896
186663
187727
191547
193560
198197
197313
202070
194586
193315
197425
192417
191242
189523
184300
182098
184090
184610
181152
187629
186579
182775
181309
182454
182858
179191
183349
182717
181895
177323
181730
176543
185596
198178
202647
200906
195271
175843
178542
173710
177213
161247
140758
300380
610702
585161
210665
138540
184938
183455
181885
172672
183353
179882
184135
182173
190643
188063
195019
198254
207577
214343
226742
235758
247359
263638
285035
305920
332783
362639
379840
395432
392898
362865
314352
259695
221115
197483
190079
185245
178645
181799
183861
185827
184233
186246
186482
186912
185753
187656
183238
180710
179634
178682
178301
181869
181228
179700
176813
174081
175724
176250
175834
170497
166542
167641
169823
164057
159892
161646
165701
177299
193631
191228
194943
178037
179286
184008
189750
182967
154248
222748
520457
688811
358763
140766
189611
204092
198361
201882
195661
190652
188117
178149
215183
228027
227174
240390
248240
248086
258377
269394
273961
291489
316198
340472
366813
398429
423150
435771
441931
416915
364136
307499
262364
232976
214091
214373
206890
202343
207327
207989
202441
203584
205368
199696
200735
209293
202723
196305
203098
211834
212994
210555
214478
223345
216441
211064
216055
214733
214342
206401
205669
205859
207847
208310
216119
219412
223318
236123
243109
238659
225653
210624
212711
205979
213692
192070
184966
396226
693107
558764
194273
177026
208199
200795
204275
200933
208360
206468
218087
217352
228632
229096
234736
240505
247805
250551
263140
271878
286573
309037
332997
357149
384409
410577
435774
446552
436432
389104
326758
282119
248590
226142
213075
214336
214880
215072
215165
214692
210328
212610
216089
219447
216392
218537
217206
213776
210608
209872
205808
202343
199538
202382
201685
201780
204663
202325
199789
199445
203918
203720
208733
210532
220827
232219
237222
232992
226787
205960
208184
200794
207875
191399
180061
354068
690569
652424
252626
179188
228231
227973
228708
225026
229885
225544
224363
216404
222602
219387
229681
236604
244831
251812
259167
273706
293701
317019
342721
366728
394581
420147
445734
461893
448809
407174
352410
298909
263016
240859
228879
223158
225257
227531
225152
228125
227433
228309
224637
224360
223482
221748
216700
217139
215859
213978
213832
209861
206739
210863
208560
208046
208715
204365
206905
208207
205809
205802
210665
214115
224300
237727
243718
239787
225980
212858
216130
214842
210612
179174
204973
477644
746153
487536
172611
204513
224177
217468
215815
220702
218346
218643
223612
228035
232513
235397
242323
248236
259229
268163
282695
293129
307991
331331
358339
385180
412627
440377
465129
470850
447455
396961
341083
294431
261886
243249
238375
234127
234457
234856
234070
236657
237749
235319
236063
237346
235766
232648
225720
225074
221868
220734
217071
211054
206017
205042
202556
199189
200665
198925
198719
198743
196767
195275
194784
203486
213195
208656
204185
192798
185130
182433
180664
185330
156230
180610
467872
752133
484232
154713
178992
202213
204531
207036
205486
212392
216288
217208
219319
224559
231345
238851
242374
252313
267615
275248
286063
303734
319870
352244
383102
408858
437257
460682
465107
438938
387847
332075
288429
257551
240477
240813
242436
242156
242714
243986
244283
240285
236127
240606
234889
231089
227430
225574
224032
220390
221837
222750
221842
215970
213564
213380
214639
213184
213320
211343
212548
214509
225092
239018
239493
224725
213467
207504
208329
201542
206043
181467
185894
443183
756211
546878
173388
175990
214543
211927
212059
208714
215042
217727
218869
216025
221591
229340
236199
243272
250755
259789
273229
288884
310079
330603
352388
379441
415091
440708
465925
471100
443403
382597
322053
277283
242929
224568
212734
210759
213401
216944
218785
213371
219620
224192
229236
227598
222044
223444
223851
222205
221060
220033
219082
221434
218379
221632
217762
216868
214820
217985
232807
238846
221302
207557
201831
200634
193136
193118
164247
174869
454473
770000
531843
157211
170986
201905
193612
191747
190988
193409
196209
198337
197968
204439
210764
218880
221602
232767
242840
258461
274299
299647
331230
360787
386190
420029
454910
480033
477611
443620
387314
331366
287439
267342
254138
248289
246316
244872
241742
239989
245848
239586
236381
240108
243314
237320
241302
245499
241774
231647
230134
226446
229294
226891
220129
221162
217924
222796
218736
223434
226763
230450
240799
252389
245664
230563
223066
222450
223482
227290
213265
213250
411703
719875
585235
188211
153784
221486
232359
236674
234295
238183
234580
250579
254265
259883
260619
268046
275762
287477
292645
303980
320519
338128
356553
388445
411458
439804
467097
484634
494458
473106
417381
357386
310164
270860
255103
241822
234887
232258
235946
239536
248529
254051
255482
252895
248209
243471
247794
245658
242959
244098
242705
238318
236562
231941
242007
243483
223007
221636
222705
215939
211887
211786
203473
252383
485255
640136
360807
112280
148262
204865
218164
216203
223067
226718
225328
231055
237493
248959
255927
261183
271143
280332
288225
299519
326471
347603
371250
398292
428213
451913
477271
491822
479579
438478
385491
335577
312129
291763
283423
277130
271746
274591
280899
279245
280668
285774
284438
293320
283053
280230
280420
276676
267504
270946
266901
268083
274841
284697
267032
260741
260345
255597
244227
255883
244029
217659
324039
584190
628455
315925
216567
260356
261401
263348
265660
268192
266871
272870
273581
277580
277505
284351
287382
291359
301554
313838
321063
342144
361870
385294
405426
435227
458133
479199
472912
438670
387027
335936
304151
282350
271923
269378
266731
267414
268417
266006
263507
263637
270204
266015
271059
269262
268852
267725
262583
262254
262366
259189
259820
252970
253214
253124
250810
259189
271937
274304
258765
250022
250949
251802
254579
250780
216946
249690
495611
699150
464611
226935
250935
261973
260446
253309
254812
258647
256938
258024
260567
264695
270427
276249
283008
290148
294317
307514
319437
336511
360489
384108
408358
433127
455486
469800
456470
413514
360378
319589
292976
277003
267328
263901
264032
265417
263006
260008
261982
264346
263614
260691
262274
266268
267809
265632
265084
263577
262510
257496
255142
255504
263063
274750
275503
260916
256203
255618
251491
254568
249992
220209
247513
490042
711961
486154
218224
241761
256626
252941
253765
256257
258158
261558
262854
264945
272387
274956
278974
282748
290070
299019
310641
327653
347851
366850
393848
419218
447067
469945
483115
462929
418498
364567
320212
290174
277133
269555
269527
267123
265205
265453
269071
269799
263873
264049
267119
267110
266455
269151
265279
263491
257523
260412
260157
259051
255173
256219
253712
251301
258672
273691
266129
256004
250253
246593
246957
249655
241716
209898
248170
511714
710531
449455
215381
243938
259690
254972
254529
255799
256528
253536
255497
257958
266347
268510
271507
280829
287698
293059
299978
313731
335844
359532
384328
408916
438227
464388
473538
461386
418059
364324
319076
291196
269828
263395
263671
259837
256425
261999
258153
260400
262620
256772
258173
260107
257898
257372
258817
259731
255881
256275
257222
251078
250286
248877
249221
247117
250830
250145
247062
246999
250224
249090
248828
247233
249453
245743
247930
248205
249429
246233
249635
251106
248723
249322
245918
245674
246101
251975
246722
246335
248490
251359
248760
244136
240106
252387
262670
273697
265359
262561
242712
244001
241892
249480
222668
203177
370906
654032
626827
285282
224236
254825
247326
250167
246735
249721
249143
254295
252570
259121
257207
266735
265096
272320
278280
288158
297924
310430
328635
351930
375083
401940
428035
456021
476428
483180
457895
412081
359523
318026
296023
281100
272196
265255
258186
260352
264672
262105
258945
259062
264350
261360
260513
261912
257761
257287
252730
244634
248142
248257
247236
239209
237310
238940
242460
241142
239629
236364
240269
242204
239065
235068
236017
234043
229737
230250
231733
235655
236746
229924
226746
233499
230670
232771
227547
234065
244778
256260
252736
248851
226774
227228
221095
228255
208345
180130
337819
655177
663208
297958
201379
235533
228541
227425
222738
229574
224584
236454
236877
240571
239479
243149
245341
254047
260447
270232
282322
298639
310518
337597
367805
391212
416475
444872
469552
467588
433138
382233
331056
289871
270634
251894
238642
232350
228279
228383
232440
234871
238336
234962
238840
238444
240125
244523
238455
235617
235690
232138
228429
224278
219659
229985
228565
227908
227079
227595
225538
225410
225309
223791
218687
222497
223360
225045
223362
219573
225799
225512
228344
221746
224529
226761
235495
243149
250117
241727
237968
217609
221706
213744
217037
201602
184722
356678
657312
627068
251733
170591
220288
222759
222919
217989
221054
224146
228592
228014
236643
232801
238833
240838
252181
256378
273236
281292
301447
324680
354201
381637
410618
441605
470193
491416
488751
455252
393622
337909
291086
262287
249209
241567
237287
236103
235011
233298
229493
235762
239929
238747
239361
238824
236267
233702
232007
232430
228525
226386
223478
222493
219033
224752
226467
221734
221068
219903
216557
215431
218240
217726
218981
215925
216997
217527
220111
222953
228177
229642
238950
255044
246951
241034
228926
216543
219947
210450
213747
184320
205213
454089
701042
490390
175697
184725
216034
213560
222722
218141
221277
221470
222255
226128
231507
235257
239822
244440
256567
265983
276112
287794
302701
329656
356567
387110
419873
446063
475073
490213
471336
433165
368742
310257
273886
250869
238162
230635
230959
227894
228463
231120
230497
229649
231794
232428
235855
232081
230245
228270
226805
225464
225062
222691
220871
220589
222343
220892
220314
220869
221195
220716
223083
226594
224498
219930
217575
222113
218136
220415
220220
223573
223569
229310
239867
249342
239027
234913
219232
220033
214392
220174
207698
171228
303606
615794
668962
301414
167974
216003
221806
227185
221403
226051
224243
236514
231616
234557
238929
248602
241736
247954
259058
274689
286281
304592
323682
346449
378492
410482
440167
468625
495084
499292
470415
411807
354459
304166
271673
256036
249476
244015
244464
245172
239879
241998
246766
238071
243008
242716
239430
243885
238138
233889
234367
231417
228829
230026
230963
230000
225106
225535
225686
232421
230560
229749
228156
226265
228558
224705
223672
226215
232211
227686
224093
237553
252711
247169
238073
222061
219750
219088
217259
209842
171130
222249
509180
708258
424292
174839
204426
217763
218765
221903
227364
221666
222968
226379
227733
227582
230337
239084
247894
252980
258547
275287
292014
304875
326779
353242
374664
407816
434553
462496
467963
445615
399250
345159
295792
257981
242513
232705
225176
222325
226764
224560
226747
223118
217879
220463
224668
222797
220668
217231
209964
207138
209392
207678
206203
207058
207564
204934
202140
201136
201854
203433
204029
198880
198633
203087
202072
211881
208803
209901
212375
209927
203610
203985
209470
210610
220872
237957
236121
237285
224268
209925
206910
207079
192579
140401
203573
507921
724950
439924
179088
192323
198314
202031
197397
197498
200557
201637
202887
208827
208839
214907
222747
224975
230274
243157
247648
263460
283493
305458
332589
363447
398275
425000
452573
470207
449818
404825
344973
286976
249851
225763
218607
212309
210007
208600
209823
209169
207309
207900
208315
212275
209966
205064
206021
205908
201402
198825
198962
196463
199888
198070
195453
197655
197279
191810
194909
195159
194920
190082
189074
192694
187359
191903
194602
196363
196670
194543
190714
194725
194988
198931
210988
218484
215127
205006
189082
192902
189864
186552
146854
152832
420904
751625
573529
198848
182791
199379
188668
188387
184937
186541
185488
191135
196096
200711
199867
206499
208544
216989
223364
235157
247170
269201
290358
315155
344177
376732
406373
435855
457077
455391
415525
356095
298597
256288
226242
206367
202601
201681
203277
200702
200808
203815
201436
203417
204189
200159
198328
196521
197577
195641
196117
196587
194979
187216
187783
192090
192081
189512
184677
183087
181487
187706
185898
181405
182826
181689
184479
182244
184322
187559
184498
183674
187166
183951
186793
196168
209376
212557
206044
186919
181301
179357
179789
177394
129515
178723
510296
778143
462379
165231
185063
187311
182197
176127
182717
182885
186305
185596
188263
192908
199340
202845
209038
215453
226937
235794
250263
269179
292327
318430
350986
382158
414714
444199
459049
452136
405567
343725
287511
248150
220201
210886
203977
201690
199748
198823
200862
201774
197622
195313
197287
196523
194546
194994
198661
194872
189087
189648
185153
184877
182132
186675
184288
182928
186969
182167
182912
186118
182891
184380
183465
178925
182563
181626
183717
180470
187897
182968
184447
199044
213329
204969
198868
179693
184968
179812
178814
149843
117352
316508
705914
682156
240178
157790
192988
182981
186627
178673
181397
177649
184826
182222
195404
191391
199659
201105
212898
218838
230722
241955
258813
275655
302256
327900
356671
385981
417759
444841
454044
423438
365449
304779
252683
222496
204336
198151
193316
195280
193943
193093
187576
192784
192638
189796
187263
188814
189655
187527
181722
181798
180025
179610
176397
172685
174648
178188
176012
170251
168100
169694
169763
169582
170298
167238
168403
166254
170777
169972
174760
174273
178696
183985
199741
195182
188668
167698
163932
164890
162994
155584
113772
184298
542157
771936
395049
128585
173697
178181
173177
167538
167077
166794
171233
173189
179753
183897
192075
198379
202377
206112
220061
233953
246662
263821
291705
319114
353285
382680
412587
442186
461179
449433
399750
331508
275382
234944
209659
200461
194517
193016
190409
196568
195043
197684
196707
194409
192432
189881
188851
190042
183462
179532
178531
180697
178769
177422
178304
179019
178746
171203
175292
175329
172398
174117
174885
174887
176390
174011
179287
181884
189253
198780
203300
198289
190034
171773
176178
173194
171814
159909
151909
346164
683668
588056
152623
81623
160373
176812
179551
179154
190760
190676
187821
187784
202152
207001
214020
220363
228339
230663
241775
256289
277396
293818
324584
357259
391101
423836
448192
471713
476979
443638
389463
320990
262409
234299
217131
213322
208832
207570
208771
207717
205368
206071
205094
205344
203234
204988
206146
205204
196561
195719
195236
193865
191786
189706
193149
186338
187579
191732
194425
205471
217395
216658
209658
195822
182426
183701
184257
184335
177850
183502
366703
637911
494579
119369
73331
159354
190285
196444
194744
206486
208538
212306
218219
213443
219742
232366
229162
242491
254200
268878
277303
299421
321833
346902
377154
402264
429510
455063
470875
464712
421252
357037
301614
263401
242336
224804
225788
223043
218635
218863
218700
218744
222552
214935
212331
218275
223114
216496
212451
211154
213476
214689
209698
205401
199620
202969
204280
212649
224419
235700
221104
211747
202896
200811
197090
200132
192529
191678
363996
621349
499684
145285
101638
181150
206310
206161
206534
217843
220425
224368
219192
221165
227709
235972
239680
247743
257706
271226
286365
304793
326435
353709
387053
413707
439148
467801
475534
456911
412751
351957
294987
258820
234500
220430
217236
218697
219471
218006
222275
219741
217369
223261
220452
216156
213082
219311
219286
210668
210674
208732
215142
222544
231857
209689
195988
192567
202028
199679
201011
181981
170942
337734
617707
562253
191875
130372
193239
207669
211671
199279
204514
204096
215048
219078
227773
217806
230778
231541
244978
248870
260216
278460
318861
348226
350348
380467
412131
441723
461477
473878
448248
388023
339338
290690
260015
251885
227620
219423
223754
232684
225419
226039
224178
231581
242479
236574
227449
224087
232138
237410
224269
219456
225053
220345
216834
211529
225892
235739
237035
216468
212888
206028
213513
212249
213458
188614
182283
391993
673763
538620
167969
151302
209572
212905
215307
214112
211034
203924
215605
219445
230566
236021
245669
241655
254981
248857
264484
284569
295002
321172
358973
392942
422651
445383
475492
488606
448991
390206
330040
289433
252719
232257
229425
221873
218309
230802
217121
221452
226993
224073
226322
221989
224531
222981
223287
227892
222774
219086
219599
216016
208855
206165
220193
224020
218350
209730
219849
219854
223055
206677
211893
218440
216565
218000
211658
223524
221480
212365
203733
218192
217482
222958
238608
247417
233171
235312
221390
221874
211601
210340
190847
165536
292485
594014
672460
307787
164641
215370
212975
224867
223120
212581
213759
225409
224708
220272
221667
229958
236160
247412
245296
268644
280547
295714
316439
338499
365537
398230
422278
458023
486387
498850
472683
414024
349828
296494
277759
252757
236836
236970
232081
225638
227624
228699
235928
227869
234208
225725
224013
227349
222795
230716
231442
218048
223374
221727
215411
216279
214775
213150
204144
205444
206454
208727
212592
227091
206255
203635
205890
210663
213252
218014
208033
215036
237360
237635
238939
225063
212910
204450
200009
199054
196040
156727
210282
499737
730347
449324
173712
202055
207847
204179
199124
201736
204424
207690
213707
220237
213935
220027
231335
239585
242785
245476
264860
272246
290235
314260
343871
375800
407739
442455
474221
483440
455226
403825
332406
285517
256864
233301
219654
216931
212616
209847
212304
212781
215351
224395
227845
215915
206645
213158
213326
210162
210810
205374
208276
210529
206442
201854
207933
208160
202404
198559
204860
201105
199381
191950
193196
197266
200832
196807
199596
201076
196293
196492
192779
192602
193424
198416
188929
190407
194534
201849
202724
218694
222481
214606
201301
203585
188596
192465
176411
191617
162954
130182
323604
689784
705349
289192
192295
207144
191883
190901
177895
183704
184829
201498
201572
192794
187660
205369
203177
214572
219038
232210
236647
254129
279333
304028
329173
369055
403432
431454
457721
460433
421167
364173
307084
264581
234840
217319
211326
205797
199937
197159
198602
194133
194730
189524
194977
193346
196936
191769
197158
196239
190629
195077
192222
183813
184817
182107
182404
184346
178656
179584
180961
183050
173408
175560
177492
176636
176836
173924
173511
176221
173630
172054
173508
177586
176454
175080
171524
173095
173674
169467
170569
169047
173513
174182
173583
176681
176869
175551
169752
175246
193440
198677
191811
180014
172010
170991
173447
168803
123043
145342
457222
781456
544877
189607
182961
187206
172065
167778
172372
176624
173893
174969
177974
184769
182224
189400
191542
200860
205901
216441
233221
253427
270863
295031
327352
362507
398983
432027
453872
451882
411595
356033
295759
247718
220321
204798
196581
192746
194735
190262
186852
187965
184098
183538
183912
186605
185005
179693
180630
178370
182363
181320
179265
177691
177240
171433
169021
173021
174089
172802
170992
166685
169068
168144
173630
175160
170198
171280
173101
170183
164789
166384
169656
167859
168348
170146
171124
170399
169405
175610
172666
168991
168481
171965
168184
167027
167465
175573
186551
203010
191234
188453
166655
169674
165239
168962
140277
109348
294533
669362
705100
269668
154065
188570
174969
171808
166485
178266
174165
177089
171910
180267
179970
193014
196177
207511
208048
226567
236244
251868
272179
303943
331466
359986
389701
430660
464254
477665
457997
406694
341143
279148
237239
207649
200060
201363
199605
195814
196726
189425
191158
190334
191862
191330
194408
196457
194626
183995
186062
187941
184833
185894
186067
178601
178144
177149
181637
183893
180961
179625
176649
173845
175535
177904
177816
177886
180935
180659
176779
179396
177147
179216
177263
183261
179171
179419
171934
179094
181917
194983
205808
211829
203739
196441
177367
177524
169561
167989
149791
135985
336195
655152
597129
185226
114959
168666
175187
178408
174099
177157
175008
187286
184719
191365
193681
203600
207573
215634
215087
226031
241222
267158
281611
311750
341929
384525
417655
449305
472858
483119
462296
410577
343092
289352
249631
224564
214269
205747
209452
202520
199056
200027
202250
197886
200727
198881
197093
190582
190491
188198
187654
181442
182759
175861
178691
179463
180626
178591
172396
171404
178870
173751
171433
179210
171831
166586
167850
179637
171857
178943
182840
192056
205270
204173
191921
186803
174017
177959
167226
171917
150545
159712
383087
653754
488116
120688
107229
169876
173574
176603
180239
177217
182968
192761
185530
192713
202558
209056
213841
224569
228167
236018
250553
272333
296054
317309
357021
389177
417053
446868
468552
461081
426352
370398
311907
265540
228409
212638
198580
195888
197036
197444
197126
199947
198417
200612
198112
198092
199800
198116
192780
193247
191184
190729
192576
193270
188537
185356
184667
180274
179080
181862
182827
175362
181304
186351
193456
204116
209721
195179
190074
171712
174844
169518
172065
167839
147448
256305
555228
610238
232343
65595
140542
178228
180400
173038
181069
186686
189420
189159
195839
199604
203650
205239
208355
219434
230701
247301
262922
279840
308092
344124
375158
401594
429026
462517
467722
436526
373606
307279
256969
224732
209729
195373
189203
184098
186119
183556
190015
191539
187454
186514
191804
189274
186415
184962
194459
190540
183469
182056
177721
175178
173903
179773
171239
173293
175365
170788
169644
174788
173365
175359
172207
185264
199618
200712
191660
179512
167864
167468
164719
168230
134930
147259
377763
637015
469694
118999
112848
164423
164630
173012
177212
178254
173569
182082
184321
185751
185699
192975
200016
209612
217731
229730
233085
252215
282574
310753
342648
374962
403799
437683
453473
442234
403568
345575
283312
232782
212845
196040
187936
183729
180955
182268
181381
184019
184886
185417
184411
186869
186006
184733
182028
184344
181621
179796
176209
173696
172427
171111
170513
165948
170810
170956
168193
165915
168119
167061
174430
176401
184947
194112
191012
184111
178310
163808
166498
163893
164125
128614
136528
375934
647407
488686
129789
123992
167484
160922
169152
164493
168920
164800
175340
174362
179918
179208
185951
190466
199151
206129
219625
232790
249694
274219
303432
333432
370050
401745
426936
445594
432351
389111
327441
271632
228453
203111
192437
183797
178521
179600
175585
172075
178436
180164
180557
184407
180795
175031
176467
176080
170315
172228
172400
168865
168875
166679
161394
163235
162895
162408
162828
159886
164238
162340
159942
160944
163325
159765
161718
171689
181082
185981
175367
177391
160516
155681
150308
149359
144989
108972
179733
480123
679141
367724
104466
145435
158176
157632
153814
155793
159100
157640
161723
165246
167938
171138
178108
183707
188858
193406
212833
228000
244589
275457
304614
336662
368073
398555
425604
441423
419954
365936
305631
250782
213427
192005
178513
172150
169357
167789
166592
166563
165743
169414
170666
171945
168113
165670
166112
165201
166494
164560
161765
156847
155970
159504
156864
150815
156459
157881
157284
156232
161020
158350
158089
154374
152892
157610
157072
157006
161969
164534
162384
178328
184994
179584
174349
161071
155783
150285
155243
145651
107974
186359
494259
678881
357348
101429
142363
161831
159022
155132
157370
155142
155884
159030
168730
172706
179733
178886
184911
195080
207176
219744
234308
254526
281862
315254
344732
378674
412688
437981
451448
434482
388612
325997
267266
228178
208461
198105
188112
184676
183045
181607
176847
179426
181630
186767
182930
175488
178887
187640
187259
181265
170898
175914
181068
178422
176310
179608
179913
173214
173011
174624
168931
166243
171445
176980
175678
173908
177245
171238
171957
168866
170584
165061
182490
191720
192984
184769
173850
166042
171127
168428
166542
131785
115159
340696
670101
572881
222582
178195
180266
168502
165349
160996
167228
166572
171208
169705
175708
174000
185331
189059
195693
202187
212957
218599
236833
250137
276435
302893
333250
361028
388321
408159
405290
369542
314462
264863
226115
200033
183363
177434
177611
176641
176275
169330
165377
174895
169876
168570
169545
172313
171579
167353
163676
161024
158675
157834
154848
155713
150465
149567
148007
149661
148275
147885
143760
145096
145202
150023
152739
153222
155498
152187
154394
148291
151783
153266
159260
156929
161609
159899
165625
178631
187165
183204
180168
155538
160589
153540
159697
130663
90926
245898
612879
693036
287992
145683
168690
153334
153618
146140
150129
143812
148748
148122
156791
155557
160835
159506
170996
179291
191939
200333
215428
232278
256673
282484
308760
342124
377196
403932
413294
392166
344897
284672
234389
203519
179548
171613
165603
163415
165457
167277
168725
170012
171170
164338
160872
160706
154940
147617
146037
144856
135162
141438
148951
155517
151871
147027
147067
152381
151057
154985
157798
155374
157465
164862
173915
179428
183505
185699
189328
187257
183554
176067
174101
166196
163599
159424
161737
170235
182941
175359
172106
152962
148019
143407
145061
130683
79396
164729
524891
727898
367275
133348
155605
143489
142381
138908
142639
140804
143466
142150
153887
157589
158235
158041
164095
166579
171429
180905
193715
212417
234252
257384
286170
320064
355321
397240
437030
443581
395870
338723
292867
251213
224933
216022
215099
212298
203211
194448
188872
183390
182992
181667
172212
170691
175333
170967
167758
169368
163836
156076
149304
146233
146282
145134
144364
145562
145787
143333
144635
143458
141687
141917
145305
144699
140024
142366
145782
147118
148557
143811
142771
146816
155806
171377
167615
166553
146742
142154
139332
141625
127938
77961
155680
518126
744003
381990
119989
149447
143434
138384
133095
137885
132563
140691
141687
142816
147246
152996
157468
163218
169078
180466
195372
208870
226566
249192
272693
303755
335694
367574
397189
413989
404290
360828
299362
242405
206399
181202
169004
161324
156863
153964
153459
149388
146422
142766
140925
139155
141120
140888
140314
141592
138638
137366
136682
132438
131702
132559
133762
134482
129344
129943
127240
130936
131109
129836
128005
129300
133444
132702
140427
155303
153993
146614
128921
119467
123672
123754
121468
78258
100000
401859
715991
461988
105854
117623
134653
130451
133155
126610
130197
129279
135936
138012
150114
154855
161864
169124
177527
186250
194263
206300
222558
242982
274994
307818
339440
375869
404158
427759
415416
362075
296844
234626
189935
161068
143528
144154
146799
140975
150958
152163
146182
155210
152639
147511
145909
148910
141943
142965
139667
129046
129591
127048
126895
132318
139884
140063
141946
139922
143311
145471
154778
159364
163047
170437
170213
181950
193441
187389
183438
173270
159586
162102
156500
160384
122034
125945
387072
717236
524389
135394
132128
161184
152392
154596
148642
156059
155121
161501
161055
167391
169656
176709
179826
190923
195673
209355
228765
248736
267003
294868
322760
355899
388883
416878
440820
431074
384615
320072
263249
218308
188278
174379
169790
162534
166228
165323
163260
157818
163155
161877
160676
160117
162091
164285
160560
156381
151095
151435
150494
150485
149340
146040
148348
151176
141875
142386
146431
164360
173991
172488
158103
144394
132992
141071
137289
138383
104151
91199
344857
697962
537747
118492
102761
151692
146203
148248
143132
150547
149863
154747
155934
167943
163824
172039
181079
184979
194262
209353
224933
244705
264852
300939
330261
363971
399178
432738
453197
441222
393323
324552
265689
222395
201843
188803
184652
176475
170109
171515
176224
173164
176438
178835
175655
177703
174876
170030
166972
167532
166715
173468
179960
190147
180611
161367
157078
158939
162854
166238
163877
147240
218761
515990
640444
269221
39419
109176
152568
170137
167903
173381
178955
185758
185646
189850
196337
202640
209874
218071
227034
237241
250686
270928
295714
316411
336086
360900
391729
414027
429618
421475
384019
329684
277671
238357
210969
203279
197246
195010
195801
191544
196963
200265
198756
198972
200893
191919
196532
201941
195767
193377
200357
209111
195761
188090
183182
183359
181487
182437
182082
175928
270610
506526
518576
200881
65381
141309
187946
199061
190165
200939
208221
205602
213545
215732
213059
218979
223767
235454
241521
247736
262122
277695
294558
318195
343863
360495
381983
404724
411883
392645
348067
306300
271780
232161
217211
215803
207433
205584
210255
208112
213468
215535
209933
211013
209208
213087
215512
210516
217348
222985
210093
201385
199383
196616
194409
196952
196982
176869
218150
418252
526299
296812
102208
145220
195061
200715
197532
202395
203180
205481
209319
211416
214778
220566
222941
230768
237899
243123
258255
270817
292731
