446400
433388
394046
404084
380766
393106
371641
390897
376891
392504
378267
386787
372069
383433
372687
378635
369139
374472
362829
365864
356114
356661
349869
359904
369949
385049
369426
358222
347499
356059
355429
352790
336420
275901
399128
836355
1037691
576221
344583
381094
371968
363260
353444
354071
358595
369991
368884
371266
377199
380948
388514
399911
400832
417798
427286
446627
464048
493201
518109
553478
579591
606773
615080
592846
540009
482656
438521
409292
396274
393589
385117
383494
380610
384081
387917
380286
383014
381754
376962
376252
381931
380566
380499
377167
378102
373292
370749
373520
379551
374067
374092
371009
373898
369095
375846
388093
405283
408090
392996
374602
377535
375237
374224
360023
308779
381014
778115
1067110
678240
365214
395071
390941
381914
378855
378276
383330
384906
386550
384996
383835
400035
403551
404979
407358
423688
439729
463551
482574
507322
540835
571092
596835
627521
650885
646792
607424
551067
499494
461669
438729
430114
425079
420341
423452
424401
421638
420484
420249
415723
416294
417621
415530
414059
416963
411046
408785
406290
401234
402069
402825
399987
403132
407372
404234
405555
403964
401065
407198
408886
407110
406236
420612
437329
443967
433831
420777
411304
416518
415060
408756
368074
361999
655502
1057127
872593
415948
404816
440549
426771
431503
423496
431085
427094
431884
428455
437138
438225
449507
451967
467558
477621
486080
501579
523680
545056
574934
605801
638026
664372
696497
708501
687732
638450
576087
529558
499004
479144
474573
471457
472368
471049
466055
476185
472428
471509
466928
464375
462520
468092
465120
467360
463081
463476
463069
462635
461276
461046
461347
464469
464101
462826
461875
461953
465553
460763
461768
467746
483485
493608
507349
490983
475964
466992
471987
468158
468586
423687
427549
743389
1121893
879909
432865
429382
470772
468132
468716
466489
472642
467904
476514
479994
480171
484422
495172
507139
519938
541310
566254
580687
596615
615252
635916
659931
680869
705292
731042
743677
727194
684691
633677
593525
562474
543213
532492
523253
520292
520168
519093
522726
528503
524937
528316
519935
521620
514816
502338
499059
496760
491712
489325
485542
473662
465135
457413
451683
450827
470977
494684
495471
492955
488818
501265
501225
514536
500954
459597
592657
1019195
1165380
685912
473555
522478
516426
507638
491072
499563
500062
519169
520093
529033
528489
535549
530500
543243
546679
562243
570432
588741
610095
644494
678202
705492
733840
762837
776894
750621
696828
631457
581749
546021
530979
512892
509024
505074
507961
503807
504028
503776
505928
501418
503823
499284
499623
496703
495344
489904
487661
483235
487194
488517
484216
486601
484380
486432
480244
483095
477726
472233
467292
479420
483416
505980
494521
483186
469618
470757
462254
474593
440549
408158
633069
1067868
1046286
547169
448772
490319
473769
472123
465931
469958
466546
480328
470701
478418
476722
483202
489520
499495
504792
517390
536151
552197
575326
604147
632061
654111
676721
704670
713153
689518
641643
582009
532573
498969
482895
481626
475947
473238
469700
472846
470300
465625
464916
458074
460471
456695
456439
456026
455038
450384
445595
444202
440957
439897
438733
433713
432071
432092
431765
433765
428601
421291
414358
412048
416477
424926
443188
446623
433544
424452
417299
415192
410026
407220
362913
372820
686921
1046234
795587
382541
398235
429400
418494
416688
409186
412169
408894
417442
416919
425752
432290
439116
444266
452901
461623
485483
498347
519097
552046
583746
608603
633915
656632
680508
678719
643819
583029
527814
489688
463808
456029
451841
456154
458564
463147
461010
462495
456700
454532
451374
452555
450078
439967
431637
434116
430046
434985
430240
430712
431646
433272
429260
426887
434542
433068
437193
431045
433099
430341
430432
421444
429368
441321
460595
447752
429053
413214
418515
409828
423686
394906
356067
524838
937818
999941
502781
361934
426946
416146
417906
407990
414796
412152
419187
419330
423594
421466
430202
432528
443976
452648
467024
478786
499855
518532
545598
574143
602048
631740
657926
677159
666497
620861
559402
505033
461876
439834
433450
430141
428813
426449
423314
430178
426299
424430
424229
421599
418967
419895
418105
410508
408591
406440
405354
408650
405876
405056
406886
404830
405600
399854
400483
404169
403065
403878
405040
405822
407463
403392
399031
399725
400374
404701
420226
432106
425939
407797
398710
405362
403714
401592
370037
397577
697214
997642
708997
314497
351779
405139
405445
412286
405574
408440
411578
416611
415454
417796
425482
434985
436952
448887
459334
473107
488333
504240
533002
567030
589537
612844
636409
660227
670206
647119
598924
541616
493529
461480
439803
432101
431633
426913
425517
423640
428285
432732
432192
430912
432708
433916
425040
422582
423913
418939
416976
417715
421271
417297
411330
410884
413871
418211
418245
431720
433249
417516
411392
408226
405113
407386
408708
399278
460172
730911
874874
540022
280096
346797
404744
407072
413993
418712
416263
427191
429491
430395
431887
437414
443042
446348
458153
471476
483729
496867
520135
542573
562909
586806
607667
629593
639908
629258
593179
542982
493872
459350
439442
425101
423071
420616
415782
420598
424982
430285
433449
427039
427359
424527
430869
428087
423433
426483
421184
413039
413618
414197
410755
419743
428895
420541
409061
407085
406479
404479
409667
405948
391307
467691
728524
826536
497495
290471
359137
404732
411221
416139
421180
418786
419576
422080
423244
429948
440226
440829
444661
454607
468697
485948
501292
518994
544343
565097
590764
613415
629364
633946
616767
572735
521392
473963
445374
432524
419764
410350
405767
408974
411477
413160
416745
417544
418747
419588
422017
419311
415695
415249
410478
411148
407322
406961
401624
402999
409323
425020
411172
400618
396399
399492
394297
397488
389169
361785
465558
740886
818739
477329
314672
379131
403326
405545
403504
405167
405545
416842
413881
413331
415810
425657
427049
434793
442306
454533
466697
479007
498756
525838
550668
573094
593601
612879
609031
576351
528139
478764
443310
426467
422854
411568
410233
407963
401453
404954
411038
411993
403948
411946
413275
415171
415899
410503
415595
409027
404130
400874
405023
399686
402167
403685
401414
399193
398426
400715
403200
405758
403939
401087
400840
404105
397320
398967
399420
398614
401706
403362
403350
407559
406595
407570
407932
417777
430095
423536
423809
415315
401838
402626
402836
398384
374840
428278
691174
860150
585981
330407
371609
406966
408857
407763
407132
411879
414954
420047
428374
430393
427968
431191
438156
447692
451312
463365
479966
495126
522048
552204
573493
600282
629674
651394
654410
632109
587999
534864
497364
464542
444634
438906
434513
432119
429381
430796
428458
430550
432237
439786
436085
436184
436443
433926
433359
431753
428264
420698
421981
421826
420060
418404
415423
420964
424342
420307
426604
426898
439867
451809
455423
446965
434978
416472
418198
415214
413416
394309
368692
462842
751713
843309
496289
332195
396304
412140
410555
421595
429211
419473
425401
431402
426313
427396
437510
443608
459180
475809
458993
476537
521720
528058
585497
593463
603419
634410
647947
662959
637980
598682
532629
492756
466537
448930
456834
463352
458038
452737
448454
445774
445593
443716
441624
440751
437385
431576
429725
431121
429521
428672
428528
423532
408897
420440
441414
434339
428472
415375
410887
400592
392021
390429
394975
415418
402236
408979
423160
434465
460731
444425
417647
426417
430219
426642
426170
387502
425154
676833
869056
606975
354582
398350
423678
418017
411972
412209
413022
419623
416495
412746
404792
400283
398308
426836
463349
468162
473890
489808
517069
533482
557474
585274
609763
637294
655752
641564
590790
528540
482350
454532
437566
436578
439958
434613
427822
417006
405186
395884
403022
405560
410522
421779
434534
433542
431546
433773
422228
418786
420580
427614
425972
418920
409020
401250
396976
403551
408633
414808
416794
411624
405569
402335
401423
405077
405471
409665
407351
411651
413905
407285
420199
427796
426106
417700
409656
401673
401768
401286
402434
358401
374946
638650
935298
738915
405025
400028
412216
399415
397062
398018
398685
400243
410283
409791
414951
417589
420884
421977
427062
434764
445684
458796
470683
500226
534655
563073
589618
617500
643867
641934
609720
558677
502950
465648
442680
424065
417842
413019
408795
410600
409222
411335
411346
409500
407458
405271
410249
414377
409037
408601
409100
404526
405509
403939
403498
400458
404206
400941
396197
399128
400937
398723
397758
396639
401354
396454
399787
401822
397685
398241
397321
401086
393047
396554
398343
392951
388531
397630
400562
404980
401864
407580
424096
425359
413926
409108
392410
392742
386511
397483
367746
348412
546651
884777
847416
450960
384284
407641
396816
400257
392521
398105
396004
406596
397859
400535
404102
410391
409683
428394
429532
445970
462139
478016
491017
520275
551841
581647
604684
632970
649736
636107
596066
539257
491531
453529
431096
419403
412513
410321
414067
409401
408140
408014
407430
408212
412156
409728
407251
403469
409368
405058
403661
402549
403395
397647
401794
401214
396503
394046
393470
394681
391798
393342
393859
395066
390397
391149
390776
390552
390836
390735
388291
391255
389922
391423
389517
397277
394662
397656
409916
420602
408182
404632
384392
385812
383243
389387
373489
330795
437601
768379
914561
548585
361319
394307
390879
392134
388525
394386
391566
393488
392732
397951
398310
403951
406222
414098
419830
434881
449098
463426
476914
504293
529816
559700
587987
612641
628788
626731
591025
537440
488294
449023
427214
413363
405400
406265
402009
398576
397037
397271
399720
398377
398774
396848
397320
397679
397208
392612
393370
391465
392627
386515
385065
384610
385570
381946
382009
379229
376038
377559
379966
378514
373664
372323
377290
378235
377245
376530
372925
382562
377002
373513
375254
375143
375330
380938
377653
378393
389755
401571
393608
392887
377321
367346
363222
369787
365813
314716
370572
696308
936034
625520
349477
373176
375289
368678
363592
361039
362371
367491
365454
368104
371793
374310
379578
384312
394048
402058
414759
426310
445362
470745
498160
528027
561456
590462
617091
629923
599633
545594
489558
441802
408597
389777
378150
376821
373728
371594
376327
376084
372644
367503
372263
373823
371191
373057
371311
369488
368777
368596
364787
364431
359953
360812
359275
362204
361316
358996
359375
359626
356840
354931
352975
353101
351847
346317
354477
357007
356520
355074
356949
351911
357584
360047
373185
380196
383251
376470
370594
352482
354390
352857
358682
332271
314136
505433
832754
801643
386408
300377
356536
358437
360458
353921
363909
366009
371620
366743
373920
376394
386435
385822
394671
400402
414325
425030
445040
464622
491868
516903
550136
576723
603938
621268
612170
567621
509304
455792
417856
396369
381720
377966
372634
373673
372955
374423
373622
374436
372710
376122
373416
373563
374369
374068
368409
372692
368935
370241
368095
363013
362381
363564
360850
359081
359503
359949
358746
356062
356138
357026
359009
358220
355700
355018
356760
356882
360716
354950
361500
357123
364413
373056
383464
378045
371007
349623
354135
346209
351759
322573
302242
502559
843326
814223
414329
339985
370176
361488
366157
356211
357313
355075
363265
360244
369129
371908
379613
382774
391213
396544
411247
425417
441939
460978
488731
513025
543412
570239
597775
613489
604597
565930
510360
458560
418912
396801
385499
380775
378661
374998
374634
380396
384189
385715
380397
377307
381191
382641
380011
381470
378709
379352
378571
378214
371526
373774
371952
369370
368172
365858
369885
371943
367068
365324
368839
368134
372149
370843
373023
372451
373974
375375
371638
371983
371595
371195
379548
395676
398715
396784
386423
376662
374328
370404
368112
317939
338597
640380
951916
711373
367617
370660
378601
372081
372277
369197
372625
371122
372449
377346
380302
386438
390141
386525
397086
408905
422951
435787
453280
473143
495800
526576
557798
582977
607034
618435
599057
548459
494879
446717
414328
401349
396012
390278
386515
388396
391419
393093
391404
389838
389107
390231
391861
397901
398480
399290
401241
396985
393026
392421
387291
384331
382134
378561
375995
373870
371774
372942
373319
375168
372096
368854
369569
369186
369385
366421
364623
362045
367803
365155
362228
369660
387984
389995
391038
378174
374898
363984
366632
365534
317259
381338
746168
965602
571457
314475
372930
363748
366096
378032
375315
391831
404538
407999
406292
404967
413991
414487
426122
425958
440131
465695
475930
495558
526454
564188
589126
606241
644473
660149
676053
645778
594308
530686
478860
445836
424803
405989
401170
425694
411544
410267
410529
416367
427614
444698
434315
429528
422517
420332
410377
395273
388122
391977
383459
368872
390829
385205
361394
350955
359753
365508
363726
353590
355025
369139
372055
371537
365484
364274
376951
367513
371992
373535
373971
358488
345207
336756
332606
338950
348787
311997
316788
595056
928595
745108
352407
339597
367584
354955
358149
359270
361832
364670
377469
378561
388324
382975
384143
395548
407023
416807
432330
448577
467116
488580
515579
550267
575625
597830
634957
646694
631257
580565
530803
488586
454320
430441
422349
419003
404452
408776
412704
411172
408772
398735
404193
405489
396576
394036
386787
391119
392879
386267
388134
386524
385025
375985
377553
383802
373758
378411
374806
374220
377828
376242
371227
368560
355250
357844
358397
358415
366127
377938
377768
378044
370326
365936
353807
359270
355079
304807
403027
761782
910155
483268
270335
327061
332654
338989
338304
351536
342412
348099
339349
342942
356381
367530
365965
380633
386051
404149
422503
437138
456692
486165
520575
555194
582849
615726
641283
642065
602011
547199
488613
436808
408499
400585
396630
388191
395951
396781
396338
391825
396160
390679
392710
388806
390938
383353
381417
377336
379897
380907
382927
377439
374409
383734
385743
388401
387768
384870
381399
384806
387000
395161
390566
391587
386088
395757
400943
415269
428315
426549
414863
415170
402701
409762
397119
396676
364511
338483
554909
935773
860381
379125
305773
367649
378531
378682
359541
364761
363409
367491
363683
373401
362968
368921
380803
392150
399956
408701
427853
461082
491715
516684
542727
576924
605990
645530
666299
653487
615182
552315
493365
452049
424407
413071
401706
394440
390072
392786
392121
389979
392180
393642
398636
399291
397600
397348
399794
394512
394569
390617
382969
381569
389925
387063
386509
388869
395304
386508
392621
406860
407772
393638
379684
369677
363329
362205
366212
366375
359862
485153
803583
819070
393474
230919
310022
359883
369182
372894
378776
383004
394267
389431
395824
399240
411157
420444
433766
434126
450858
465263
482228
507636
533781
563894
586170
605276
627630
639671
629141
587629
541895
493597
449269
421491
412187
406453
399023
401686
401932
405192
403880
402615
401408
400195
399876
400952
394532
392386
392539
395701
393286
394085
387924
390563
391217
394566
408332
412363
411137
405550
391372
386143
382809
387220
379302
350583
438338
727645
845410
505491
304004
360561
383552
383098
378633
389747
386389
388083
400165
402235
401247
402004
406253
417661
422939
436991
448160
468279
489085
514229
542037
569498
599462
619975
628318
610483
555546
496862
453725
422573
401473
392831
387532
381534
383906
380783
381552
384585
387366
388018
392015
391055
395204
402792
395665
394157
391103
391398
387559
384016
393605
400775
399784
383311
382497
381442
379173
381039
377355
336366
360415
634201
919543
698566
361480
369791
387981
383901
379221
378539
385544
388192
391572
388122
393876
396529
404175
407025
414410
425747
440085
452129
476529
502930
529010
557378
584381
608788
624710
606926
566684
507967
453961
424834
402325
391540
391582
393874
388495
392375
392117
388459
384511
386679
389876
384384
386811
387692
384842
381478
378378
377909
386713
397661
399260
377089
375091
367748
367369
367872
371063
336774
314852
544049
895369
791039
380942
342339
376696
362555
371339
364945
367649
366035
378687
376963
383884
383104
391802
395660
408171
407048
418330
437652
464624
478030
507463
537719
566526
594703
612025
597935
556534
500462
446759
415984
385605
373854
370912
369334
367228
370519
375244
378134
370032
378166
368333
363865
364221
369744
364541
360062
359337
357250
352205
351153
357070
358925
354473
353646
349955
344985
348518
352773
355580
346752
344032
342584
361820
369474
381198
368528
361587
329129
343362
350147
359713
335979
288232
419853
806725
943552
507689
329277
369242
362369
361524
346734
351849
350204
364336
364797
364925
350461
359967
382169
391095
392917
400103
407846
437149
461704
478771
508135
546220
585054
611084
636173
627321
573908
518379
463136
419433
394870
385328
379816
370751
365443
365356
374939
386532
375853
368810
383140
374492
369415
364260
359958
355607
355629
356421
345852
346278
341259
346917
350082
346813
342246
347312
346425
351345
352018
356214
362833
363491
366656
375892
386137
374563
373865
361056
358708
368252
378894
360485
362617
349434
350496
330378
314845
289408
228290
326952
710512
921981
521858
289043
334798
339429
335208
335526
355184
349677
349332
345324
350953
352870
354812
356878
362115
366312
381032
391492
409868
429904
466394
491826
518298
546033
576383
600175
602830
574269
514095
456031
409246
379157
360565
355539
347402
348551
354772
353789
341388
346030
348818
342680
343724
342549
337798
333282
331086
332480
328534
328617
328505
330416
333070
331987
332017
329648
329611
325128
321852
325082
327849
330606
328253
326859
337219
354905
364720
347481
335057
332032
331136
331659
330634
283026
288638
593190
945649
703055
303590
313457
339115
331378
334984
330906
329871
327470
339200
341614
348518
345438
359262
367135
375431
384067
397803
408026
425138
455169
481519
511621
539705
574457
605302
611500
586640
537476
476145
425729
387142
372542
367455
358582
355697
353090
351682
353502
355145
361472
358506
352458
344246
338936
343850
346449
348983
345024
340361
337520
334186
335565
335082
336828
340845
338904
337140
331495
334507
337178
339617
341409
352631
367813
372172
356281
340824
330914
338727
330570
334079
320107
274260
364644
736279
918463
498738
263060
325271
336068
338200
330638
337499
333254
339403
347491
354817
355330
367176
365711
374245
388712
397843
410145
430398
449473
469013
498215
532776
564771
590446
614365
617874
576544
515578
459545
407751
381616
364106
357113
357861
359747
360129
358793
363519
363396
357914
354871
356077
355936
350643
342273
342970
353541
353625
345701
344343
344760
345270
340068
339422
342006
339569
333340
333993
352913
358888
368624
375268
376128
368079
353294
339105
343223
338702
338134
300154
297300
577973
937439
752782
321713
314692
356389
348581
356235
352726
356853
354440
361361
364713
380563
374254
377908
386862
401774
408233
419537
434970
461840
477741
507147
546455
581153
604843
635514
649727
629906
575457
504433
452652
418774
399087
392112
388656
381511
385319
388383
389730
380412
385979
389306
385471
382182
379755
377730
376465
376527
380310
374623
371529
365597
369361
372011
368158
378701
400068
391313
375005
370436
360208
365124
367550
368326
351830
410845
702432
893496
549566
243214
302966
364665
373606
375463
372634
374650
379203
387746
393598
396406
398291
401585
416016
427707
435971
453745
467873
489580
517274
544714
576347
609775
643771
653374
639168
586810
526496
475396
434133
406864
389811
381896
383565
381071
389538
390032
393354
391934
394456
400862
386513
379940
384564
384240
376796
375518
366915
374827
376740
386696
397673
394081
370522
367349
367162
364224
359640
360994
320593
329458
609775
932726
719874
339459
351288
376630
373196
368605
363414
366659
364999
374575
379120
379532
378917
385435
385908
400817
407567
423755
438801
459665
479602
512524
545397
563834
586706
602491
587495
541007
485714
439651
404502
382916
375149
370927
371821
371415
368761
368517
363994
364911
365176
365692
364556
365198
364651
362114
361344
362918
374716
385788
371220
359605
357409
354870
352909
354081
346363
297214
339434
676536
975568
672167
346541
362185
366378
361716
363613
362258
356863
359547
363601
368328
366083
368742
368840
376071
385468
394949
405216
418387
440386
465370
491463
510511
532199
558806
572457
543632
496186
455585
426135
410570
398296
399598
399973
396517
394440
385976
393957
399921
402400
393412
371736
359134
362558
352163
342915
346486
348932
341027
325195
324698
321207
322711
321469
312056
264433
257250
546235
913267
709965
335355
312067
321626
327591
341498
352794
358243
348496
329967
308988
309216
314960
331647
338188
338089
339700
358112
383511
406923
420973
445443
473921
501868
525526
533316
504850
459296
410759
379461
364202
356840
358132
353124
355353
357936
357523
355802
357039
344895
340956
340473
341882
348816
353436
360401
364239
370321
386795
390542
382528
366568
362730
364512
371560
356414
336595
332282
329291
328567
330329
323991
277494
311535
640643
930857
640763
349405
354357
353988
356705
362064
363941
360668
367098
364449
365714
367094
362758
366264
379311
382022
394413
412758
428335
435052
456806
483466
506703
537966
561067
569822
548782
503510
458348
419501
397968
388246
375929
374457
372543
369723
368192
371800
375163
378372
374035
375908
379822
379885
376904
370118
370307
368539
366316
359285
359329
360724
358195
359995
359134
359654
354929
354972
356966
356044
351446
354806
360491
353134
351449
355639
358088
356672
355231
361035
361812
355283
353990
357596
355259
353455
354912
353391
364039
375389
392068
368176
358626
358100
356149
354563
311769
356057
674043
914144
610395
337398
357997
365471
360972
361424
364190
362441
362957
366790
367387
365084
371368
376741
379969
390868
396146
400611
413245
430118
441140
465158
498941
527344
550380
568739
580329
561808
519138
467970
426922
400353
388493
380428
372312
372351
378085
376194
376491
372757
371528
371743
370601
376977
375389
369795
371461
368600
360697
366421
363975
361750
359390
358876
357415
359848
360954
355602
358476
354520
352494
353455
353023
357971
354749
352441
354726
354070
349735
347798
350185
364943
378421
368164
354585
350691
349959
348442
347264
304026
311627
615307
928702
687074
357134
353241
362998
353149
349837
349736
350402
351919
357021
354922
356603
356774
363895
366538
373386
385800
396556
407151
421607
445581
471840
496896
524489
551378
577334
584898
555681
504268
452733
415282
393232
377983
367287
365328
359664
361355
361978
363724
366650
365173
363684
363097
367560
365171
362315
359260
358522
357156
355651
357617
355042
351234
351993
349409
348799
347581
349875
349867
351347
349095
346540
347340
344455
344665
344432
348385
343282
342968
342082
341208
348383
360995
374886
365407
349283
345334
343022
346930
342358
299748
313194
622350
933132
673758
331275
340292
358428
346215
348624
345503
346597
349785
349489
352415
361244
365267
367650
371654
384857
393337
403144
411335
432206
453819
484938
518669
539728
562817
588121
597515
574098
525304
469424
417455
390520
373803
361330
357663
357345
353622
351573
354875
354332
353050
352712
355772
352521
355307
349107
349147
352514
354026
347899
340538
332312
331956
328728
326189
321957
319181
324321
327020
328305
329469
330312
323761
328773
328872
332666
333110
339421
353819
369547
362543
361840
339235
340811
341877
345810
330409
283959
399069
784594
919869
495835
301729
344800
342888
344677
335993
343141
335819
339424
341865
346208
347348
354440
351178
357287
367435
377278
387085
404236
423156
446578
474304
506309
540716
568253
587636
578893
536130
480155
423972
381921
360395
346550
340088
334096
335374
336843
336543
337874
342209
342005
343150
347786
344173
340978
339123
334538
331515
329653
325890
324783
325513
326675
322739
319975
321660
319086
317569
320820
320409
319111
319941
319787
319325
318175
317311
317039
320744
332319
349796
346840
341902
325980
315798
313751
311427
309233
263520
300312
646907
954387
634543
284004
308235
324474
321769
315179
320516
327030
323024
328219
331348
332850
338134
350009
354593
360854
374544
388993
408735
432698
455410
485678
516278
549181
577225
603928
609636
582349
528969
464587
416589
385316
368090
358362
351448
348101
347645
347204
345708
350562
352188
345724
344417
344513
349177
345760
347115
344980
339061
335131
333356
335629
335630
334114
330805
334992
330026
329089
330791
332486
341782
351337
350017
340601
324189
321866
320936
319983
310119
267735
306552
633565
907769
599910
284038
306972
321421
317047
311797
311992
312593
316575
321244
321671
323093
326604
334236
340764
349085
358830
371873
386214
411390
434838
461856
489625
524877
552863
567557
558823
522169
464732
408783
370646
349060
334018
326096
325836
327456
327424
326048
330599
328396
331668
334268
338593
338190
336759
332963
331716
325125
325848
325229
325341
325529
324908
323098
322553
324801
324209
320540
319575
317274
316882
320149
314411
319041
317276
325820
334511
346541
335475
333537
313535
313190
308937
311340
283338
247167
439843
841284
839803
392393
288547
324701
317510
317676
309225
315541
311664
321256
319234
320898
318201
331712
336987
347426
353760
364283
375551
398018
419153
449376
479632
505800
534676
568711
588223
568688
519734
459189
409795
376074
354896
340301
336854
334682
332360
338784
340691
335389
335032
331137
336600
339150
335268
336673
334977
331367
334790
332532
328655
326850
328638
323912
319615
322961
318747
324285
323767
320307
321364
323607
320332
315428
322709
326022
335135
347724
352702
349331
334794
319670
323315
324892
321543
275671
276364
561961
934003
745765
331012
310254
332347
327779
326155
322200
331711
330091
339543
336800
336207
335350
345081
347049
359014
365725
381161
392068
412779
437643
468037
498980
525550
554521
579357
588372
559765
506800
452082
406992
376310
359690
351284
348450
347245
346985
343201
346818
342824
340674
347663
351130
344766
344473
347963
350368
345325
341390
339475
335727
337714
336164
336211
332205
333787
336598
333542
331846
331719
335418
337584
333150
336524
340266
337490
341742
358015
361454
355026
343235
328656
333867
328585
331654
290486
280997
559403
949297
777691
348979
324722
346241
334026
335903
328681
330731
329526
337896
337575
346704
342835
347509
352922
367376
374796
388863
402746
422243
441190
470380
502477
534771
564660
591765
604017
579007
525496
465385
420379
387987
368647
358342
360742
358665
359938
364409
362022
356980
360077
364033
363735
354172
353655
355071
354356
350642
353887
352525
347890
348278
346759
348866
346111
343944
345199
350519
347437
350041
349419
344848
347541
352508
354373
349043
360049
377325
369533
370140
359573
347676
351660
344103
344981
321410
351520
635408
874683
588897
258326
290893
339970
349823
357627
357321
359527
360379
369086
369498
372506
375518
384141
390237
404702
414017
422951
437326
460459
480419
503120
531882
559268
583063
604295
605107
582492
535767
478413
432604
411962
395581
377629
384901
387434
384574
385424
387287
387416
390071
385489
389825
382861
381312
380677
381472
381593
380286
377565
375027
377976
374712
380826
381779
397594
408780
404299
388306
371086
369901
371092
372478
373901
367037
428253
658397
740077
445759
263387
318144
367190
380178
379392
386863
391424
396642
397608
398692
400091
405370
412544
422086
428217
443432
457854
466554
487933
510439
534267
563070
586062
608754
610417
585934
541024
485370
436271
410589
393565
383131
383933
378504
379007
386500
385441
386522
388859
386198
383457
380630
384932
382589
380247
371432
371958
375747
375833
373261
371276
369190
372375
374844
365573
369462
375389
375272
378956
389328
393820
387922
374797
364356
370011
363984
366643
348379
349239
533974
742127
590436
319978
323608
362221
361121
367973
373955
373694
371857
372850
377321
386965
381232
387791
394944
398116
406615
427279
434249
454979
476746
497642
525358
544208
564071
583446
583064
556524
509198
456795
415558
394412
382492
379755
374126
370640
371305
371285
369497
372771
374256
369492
371205
375557
378576
372765
372943
368034
369149
362512
360566
364462
358912
353852
356559
352865
355089
353042
353790
365090
371545
371341
358564
338948
343675
339781
339349
335829
315340
424136
692932
712295
384389
277417
335438
353869
353140
351237
356590
349331
352392
363335
372452
366092
371858
377829
385292
391447
403598
415544
433364
446578
472421
501921
530335
551617
573477
583302
563201
516530
461351
419334
390994
370919
361736
359095
360123
362030
355647
355403
359656
360663
364280
369405
363810
364359
366793
363002
359747
357982
351415
354175
353710
352370
347739
341993
346460
353076
350579
349890
352904
358977
357139
362473
377275
372123
359212
355317
347530
349040
344083
347537
323633
306009
469132
735462
679770
336040
278505
341565
349179
346150
338867
346789
341908
348254
350922
357126
354922
362701
369745
375855
381474
395734
408528
429950
442957
470297
497350
530480
554982
574318
581210
560202
509834
452781
411639
376984
362331
358022
355539
348895
347950
345104
347719
349843
350752
350203
352510
353129
355380
350944
347888
347371
349023
344650
347264
343332
341108
338633
338535
340874
338531
332278
331919
335329
341837
339683
336129
340554
336371
343318
335136
345482
361141
362907
350731
348897
329429
331305
325795
329606
313042
285702
394374
678470
753778
420237
274831
325622
336822
338735
337117
340971
339218
338364
338896
346684
351891
354465
357038
360735
371077
384439
399290
418167
429294
456001
488630
517047
541155
566771
581389
569005
528480
470175
418859
386744
367786
356135
350040
345199
346646
341550
344449
342059
344603
346580
341115
345865
345348
346983
344339
342180
342161
341640
335254
339933
336754
335376
331986
333532
334228
332114
336943
337120
333109
333984
338900
332560
332327
332339
332442
328601
334536
331980
347105
359975
351726
341748
330699
322558
331105
325217
323016
289850
301143
521812
779231
630381
305459
293794
326292
330320
333905
328448
328257
330114
339228
337775
336163
340874
345581
350275
361272
371049
383993
392418
414065
434825
464773
490008
519083
546217
574318
581495
553320
500893
442520
396749
371198
352995
344379
339874
340955
340981
336214
340481
341252
339319
336127
337058
338606
338961
335779
332797
332148
334426
330544
332080
326435
330095
332372
321184
322568
322039
315134
321626
323617
320915
319552
319032
313540
316369
317786
312538
314962
316779
320516
319589
323330
321336
332346
340354
334134
335553
325447
308330
306499
307696
310776
275044
309369
571221
790579
556689
276996
301170
320650
317191
318602
314235
318254
324346
328597
328198
330264
332928
342657
346257
355617
368980
380822
403851
425906
445649
469817
496683
522163
549612
571129
564321
529401
476979
419399
376317
348601
334202
326874
325629
329216
322914
324481
326232
327430
331443
338379
339915
339289
343711
343899
339788
335751
335173
333828
328919
327737
324105
316429
319955
321512
317886
316324
311152
313341
318737
326985
334282
340299
337461
334739
347083
347349
346600
346675
340586
333793
333200
333448
343737
357123
362318
357967
345509
328966
332439
325449
324271
298756
289780
493764
763909
645256
316252
282580
329126
328068
332823
334698
337626
338760
347999
349458
353102
360622
365103
363353
371260
378426
392080
401840
422792
443675
469985
502852
534396
562059
590447
601478
581577
532787
471531
421343
389613
367380
352132
353667
352383
352915
350568
349162
350650
351263
352847
354497
354026
356045
358666
362838
362908
356704
355117
352323
348274
351067
351754
348166
344983
347137
350255
349516
345587
344093
344040
346442
349736
344983
342768
344510
344420
341044
344635
345639
346638
351899
362382
368930
360469
344394
332060
331701
332048
326672
286043
316212
579684
817178
597392
303120
317064
333453
323465
326509
328709
332300
335204
341936
343064
351281
351285
354911
362001
373332
381120
397806
409480
429787
453943
482616
509111
540249
563416
581813
585923
554871
503002
444591
401425
371807
355665
347414
344567
338173
335645
334233
335363
333010
335854
334443
338273
338110
338366
336301
331029
330389
328750
325892
321380
318414
318313
318250
316300
317566
318929
325713
323820
321942
317917
320874
320377
321163
316920
320088
320556
318547
317609
319087
319595
316428
317636
314967
316227
316984
319764
319008
331624
342106
343359
339504
333559
315675
323414
316614
319810
279630
264103
488151
840208
774004
380652
315167
333622
319590
321996
316633
322188
320011
326136
326524
335972
332089
341790
342499
347641
353987
363902
372119
393361
414820
440417
469700
502641
529971
555142
571258
563296
527019
465234
413409
377104
358512
345531
339305
334590
334727
330849
335285
337082
336935
331247
331744
333202
333053
330580
326613
328094
327181
324542
324946
321475
318163
318293
318173
316967
310996
312322
307603
311517
311389
314914
312264
315252
312614
311824
314461
314651
311661
313844
314659
314529
315382
312572
314941
314783
315954
311424
317416
314641
320213
330566
340762
331012
329045
307191
309834
307535
315682
285967
242547
396291
767864
848900
458159
315210
327592
315472
314996
305087
311465
307494
314767
313083
321637
319190
326999
329704
339071
344295
357790
365906
378099
395598
422625
448736
475268
504034
532992
557075
557103
529237
479567
427311
382611
356110
338033
332791
329941
329185
329626
332206
329576
328308
327423
328642
331322
334038
325667
322017
320708
322709
326280
321085
319929
318257
318996
317106
316917
317351
317727
314827
318816
318487
318132
318658
315673
315706
316605
314722
315520
315339
315760
312022
314604
313727
314618
319205
320343
319892
316511
317923
316438
319817
323959
341043
337256
337038
316447
318664
312322
308922
294503
246953
341316
706768
907849
550941
317076
325950
316815
315901
310287
311273
306334
312554
315107
316417
317223
325189
327805
337318
337632
349111
361972
375738
389508
412552
435122
467509
500876
527549
553329
567481
551806
499233
445662
398963
363351
339974
332489
327700
328779
326019
324643
324809
326033
326697
329130
324024
325315
324848
320394
321922
322346
319163
313604
313642
313087
313056
311683
310237
309807
308790
309801
311932
307252
309355
307129
308937
310404
310876
310586
310522
312278
309492
306503
306013
306929
304965
306748
308008
303981
311839
328404
331298
329691
314627
306694
302794
306739
303937
254937
285445
611840
917712
642936
306817
315697
319324
309835
308280
306741
307597
307448
310789
313691
320430
322429
326088
330843
336675
346560
363472
379286
393978
414201
444932
474358
510269
540262
569182
583882
569888
523814
464527
406090
367407
342925
330586
328123
325804
324876
322801
323237
322288
322124
321714
320509
320717
323922
317572
318441
316788
317861
314368
314629
311459
306817
305496
307374
311002
308651
304090
307482
308024
305824
306083
308390
307254
302488
304777
306353
309563
304905
311812
309460
313321
319411
330926
329378
327213
305681
302842
301842
304552
291686
242222
314155
677072
922766
555391
283989
313817
309918
303186
300131
301467
299272
303859
301997
306055
315011
323065
325367
332963
338302
349590
360127
378191
398710
421789
454685
488279
521321
555975
584460
599951
574133
519800
456586
403744
361711
338980
332543
324708
325286
321812
322539
322110
321011
321944
323551
322464
322823
318236
317873
317205
315307
313646
312419
311600
309452
309293
311527
309449
310823
305852
307023
312538
306276
304420
304541
306625
306280
306133
308209
313318
310969
320107
336546
339342
330112
316376
303641
305161
302218
302183
279962
290628
553485
861292
633466
236237
232043
299074
305619
306737
307982
314892
316847
323420
323508
329816
335928
338525
346911
358881
364642
377126
393938
412539
438135
468536
498932
527794
562439
595946
615810
599419
546453
481381
417953
370211
344804
334409
327399
325842
324166
323179
325271
325486
325378
326032
325886
325712
322535
324470
323131
321206
316807
314695
313392
313172
313711
312569
307339
306812
308283
308144
308161
305817
307185
304881
305179
300498
305618
305296
307961
318185
330036
327847
325340
306234
307216
300028
303950
286371
235510
334632
711965
894508
498171
278380
318473
314607
308545
300892
305790
304954
309023
307246
314103
318308
323529
323242
334065
339882
351496
365482
383122
399330
424320
455989
485968
514763
545164
565920
569428
535833
479468
423109
376686
354399
336729
327049
325792
324364
322357
324295
322224
323071
324267
323281
319731
319641
319017
321301
319821
317666
314879
314642
312637
311282
310850
309053
308808
308863
309549
308422
308105
310144
312711
310542
310744
310664
310617
310503
313503
316222
324280
336688
336448
331879
314967
309048
305805
306283
302149
254390
300367
650756
933503
605460
296212
314332
314509
308423
304793
309541
309589
311381
311276
317133
321113
331385
335901
344314
350595
359535
368651
382168
397420
422992
454498
489026
518993
550866
584343
594691
573464
514942
452085
398033
364818
338282
327741
325088
324794
321585
322635
322265
325505
326836
322536
323965
329320
326961
329169
327876
324590
323371
327065
325338
320707
324635
336294
328133
309105
300150
290783
300978
306965
307580
305726
317126
321554
326467
327280
326584
320421
327705
339830
348321
340942
337691
316155
315109
312901
318246
294214
248128
401276
797474
881371
430452
275567
318993
310654
313195
310096
321353
323338
334110
330956
335776
332118
336103
332106
340919
346974
361030
372499
400658
422296
449894
469522
495222
522213
550297
575018
573458
540591
489677
435369
393617
367013
351888
348359
341440
336438
328451
331880
330716
331810
331199
332793
327144
327492
324496
324444
320470
319218
317790
322032
323782
324854
323820
323618
320279
319752
317929
314553
318954
317167
317692
316296
320717
318160
319130
317645
327254
329939
333778
341711
355592
350427
343371
322261
316881
312068
312486
308802
270460
343335
705259
921803
528204
249128
302717
320625
321121
321132
323562
327996
329643
331902
336152
338280
346720
352341
358158
364507
376124
386984
402933
422651
443456
478402
508760
539034
571863
598506
607563
582199
522253
456948
404999
370659
352404
341614
333366
326439
331094
332004
335734
338723
335324
335166
338242
336616
332496
329719
329981
328635
328525
326417
323475
319384
322946
322258
318313
318780
318620
318087
319063
316574
313754
314941
315411
315503
315117
321009
316336
319128
316125
327109
338562
345757
337248
331808
314529
313382
306156
311411
298708
262651
404213
782223
851246
394517
230264
302096
317462
318285
312357
317743
316914
321891
323116
331707
333936
348967
348862
357468
364284
379343
395720
416786
435591
461007
491003
532383
562563
592857
621432
625935
591715
529882
462705
407133
375645
356172
347050
338649
339139
341434
339700
338746
343293
340195
343481
340731
342559
343869
340157
334762
333482
332340
330549
327266
328716
323944
324964
323654
322692
324390
323349
328455
324920
318734
320619
325750
324295
341793
351578
350405
340091
327625
313407
318824
315830
318978
285901
290483
560442
889310
689505
279302
270636
323211
320698
321697
322303
325925
323039
332778
332158
338177
342581
352679
356080
364503
376691
391102
406477
424467
448990
484147
516338
548898
581565
613308
628270
604536
552124
483101
427022
386128
364315
350120
347410
346631
340931
341679
344030
344353
344556
343990
344535
346365
342344
344059
346638
341945
334559
333705
335480
330405
325490
330799
327867
329018
331345
326718
324299
324662
326293
327289
324234
327148
331132
333553
348416
355673
351326
344431
328204
319816
321816
325063
314857
269858
319512
652815
923293
602776
271275
305949
331756
324553
320829
321492
322600
326177
331832
336732
338075
340983
349133
357455
365110
374829
385129
402659
422868
447693
481055
518118